# Pulseq sequence file
# Created by MATLAB mr toolbox

[VERSION]
major 1
minor 5
revision 0

[DEFINITIONS]
AdcRasterTime 1e-07 
BlockDurationRaster 1e-05 
FOV 0.25 0.25 0.105 
GradientRasterTime 1e-05 
Name QA_T1 
RadiofrequencyRasterTime 1e-06 
ReadoutOversamplingFactor 2 
ReceiverGainHigh 1 
SliceGap 0.005 
SlicePositions -0.05 -0.03 -0.01 0.01 0.03 0.05 -0.04 -0.02 0 0.02 0.04 
SliceThickness 0.005 
TotalDuration 359.82056 

# Format of blocks:
# NUM DUR RF  GX  GY  GZ  ADC  EXT
[BLOCKS]
    1   0   0   0   0   0  0  1
    2   0   0   0   0   0  0  2
    3 354   1   0   0   1  0  0
    4 216   0   0   0   0  0  3
    5 1267   2   5   4   2  0  0
    6  68   0   0   0   0  0  4
    7 544   0   6   0   0  0  0
    8 227   0   7   0   8  0  0
    9 10000   0   0   0   0  0  5
   10  52   0   0   0   0  0  6
   11 354   3   0   0   1  0  0
   12 216   0   0   0   0  0  3
   13 1267   4   5   4   2  0  0
   14  68   0   0   0   0  0  4
   15 544   0   6   0   0  0  0
   16 227   0   7   0   8  0  0
   17 10000   0   0   0   0  0  5
   18  52   0   0   0   0  0  6
   19 354   5   0   0   1  0  0
   20 216   0   0   0   0  0  3
   21 1267   6   5   4   2  0  0
   22  68   0   0   0   0  0  4
   23 544   0   6   0   0  0  0
   24 227   0   7   0   8  0  0
   25 10000   0   0   0   0  0  5
   26  52   0   0   0   0  0  6
   27 354   7   0   0   1  0  0
   28 216   0   0   0   0  0  3
   29 1267   8   5   4   2  0  0
   30  68   0   0   0   0  0  4
   31 544   0   6   0   0  0  0
   32 227   0   7   0   8  0  0
   33 10000   0   0   0   0  0  5
   34  52   0   0   0   0  0  6
   35 354   9   0   0   1  0  0
   36 216   0   0   0   0  0  3
   37 1267  10   5   4   2  0  0
   38  68   0   0   0   0  0  4
   39 544   0   6   0   0  0  0
   40 227   0   7   0   8  0  0
   41 10000   0   0   0   0  0  5
   42  52   0   0   0   0  0  6
   43 354  11   0   0   1  0  0
   44 216   0   0   0   0  0  3
   45 1267  12   5   4   2  0  0
   46  68   0   0   0   0  0  4
   47 544   0   6   0   0  0  0
   48 227   0   7   0   8  0  0
   49 10000   0   0   0   0  0  5
   50  52   0   0   0   0  0  6
   51 354  13   0   0   1  0  0
   52 216   0   0   0   0  0  3
   53 1267  14   5   4   2  0  0
   54  68   0   0   0   0  0  4
   55 544   0   6   0   0  0  0
   56 227   0   7   0   8  0  0
   57 10000   0   0   0   0  0  5
   58  52   0   0   0   0  0  6
   59 354  15   0   0   1  0  0
   60 216   0   0   0   0  0  3
   61 1267  16   5   4   2  0  0
   62  68   0   0   0   0  0  4
   63 544   0   6   0   0  0  0
   64 227   0   7   0   8  0  0
   65 10000   0   0   0   0  0  5
   66  52   0   0   0   0  0  6
   67 354  17   0   0   1  0  0
   68 216   0   0   0   0  0  3
   69 1267  18   5   4   2  0  0
   70  68   0   0   0   0  0  4
   71 544   0   6   0   0  0  0
   72 227   0   7   0   8  0  0
   73 10000   0   0   0   0  0  5
   74  52   0   0   0   0  0  6
   75 354  19   0   0   1  0  0
   76 216   0   0   0   0  0  3
   77 1267  20   5   4   2  0  0
   78  68   0   0   0   0  0  4
   79 544   0   6   0   0  0  0
   80 227   0   7   0   8  0  0
   81 10000   0   0   0   0  0  5
   82  52   0   0   0   0  0  6
   83 354  21   0   0   1  0  0
   84 216   0   0   0   0  0  3
   85 1267  22   5   4   2  0  0
   86  68   0   0   0   0  0  4
   87 544   0   6   0   0  0  0
   88 227   0   7   0   8  0  0
   89 10000   0   0   0   0  0  5
   90  52   0   0   0   0  0  6
   91   0   0   0   0   0  0  2
   92 354  23   0   0   1  0  0
   93 216   0   0   0   0  0  3
   94 1267   2   5   9   2  0  0
   95  68   0   0   0   0  0  4
   96 544   0   6   0   0  1  0
   97   0   0   0   0   0  0  7
   98 227   0   7  10   8  0  0
   99 10000   0   0   0   0  0  5
  100  52   0   0   0   0  0  6
  101 354  24   0   0   1  0  0
  102 216   0   0   0   0  0  3
  103 1267   4   5   9   2  0  0
  104  68   0   0   0   0  0  4
  105 544   0   6   0   0  1  0
  106   0   0   0   0   0  0  7
  107 227   0   7  10   8  0  0
  108 10000   0   0   0   0  0  5
  109  52   0   0   0   0  0  6
  110 354  25   0   0   1  0  0
  111 216   0   0   0   0  0  3
  112 1267   6   5   9   2  0  0
  113  68   0   0   0   0  0  4
  114 544   0   6   0   0  1  0
  115   0   0   0   0   0  0  7
  116 227   0   7  10   8  0  0
  117 10000   0   0   0   0  0  5
  118  52   0   0   0   0  0  6
  119 354  26   0   0   1  0  0
  120 216   0   0   0   0  0  3
  121 1267   8   5   9   2  0  0
  122  68   0   0   0   0  0  4
  123 544   0   6   0   0  1  0
  124   0   0   0   0   0  0  7
  125 227   0   7  10   8  0  0
  126 10000   0   0   0   0  0  5
  127  52   0   0   0   0  0  6
  128 354  27   0   0   1  0  0
  129 216   0   0   0   0  0  3
  130 1267  10   5   9   2  0  0
  131  68   0   0   0   0  0  4
  132 544   0   6   0   0  1  0
  133   0   0   0   0   0  0  7
  134 227   0   7  10   8  0  0
  135 10000   0   0   0   0  0  5
  136  52   0   0   0   0  0  6
  137 354  28   0   0   1  0  0
  138 216   0   0   0   0  0  3
  139 1267  12   5   9   2  0  0
  140  68   0   0   0   0  0  4
  141 544   0   6   0   0  1  0
  142   0   0   0   0   0  0  7
  143 227   0   7  10   8  0  0
  144 10000   0   0   0   0  0  5
  145  52   0   0   0   0  0  6
  146 354  29   0   0   1  0  0
  147 216   0   0   0   0  0  3
  148 1267  14   5   9   2  0  0
  149  68   0   0   0   0  0  4
  150 544   0   6   0   0  1  0
  151   0   0   0   0   0  0  7
  152 227   0   7  10   8  0  0
  153 10000   0   0   0   0  0  5
  154  52   0   0   0   0  0  6
  155 354  30   0   0   1  0  0
  156 216   0   0   0   0  0  3
  157 1267  16   5   9   2  0  0
  158  68   0   0   0   0  0  4
  159 544   0   6   0   0  1  0
  160   0   0   0   0   0  0  7
  161 227   0   7  10   8  0  0
  162 10000   0   0   0   0  0  5
  163  52   0   0   0   0  0  6
  164 354  31   0   0   1  0  0
  165 216   0   0   0   0  0  3
  166 1267  18   5   9   2  0  0
  167  68   0   0   0   0  0  4
  168 544   0   6   0   0  1  0
  169   0   0   0   0   0  0  7
  170 227   0   7  10   8  0  0
  171 10000   0   0   0   0  0  5
  172  52   0   0   0   0  0  6
  173 354  32   0   0   1  0  0
  174 216   0   0   0   0  0  3
  175 1267  20   5   9   2  0  0
  176  68   0   0   0   0  0  4
  177 544   0   6   0   0  1  0
  178   0   0   0   0   0  0  7
  179 227   0   7  10   8  0  0
  180 10000   0   0   0   0  0  5
  181  52   0   0   0   0  0  6
  182 354  33   0   0   1  0  0
  183 216   0   0   0   0  0  3
  184 1267  22   5   9   2  0  0
  185  68   0   0   0   0  0  4
  186 544   0   6   0   0  1  0
  187   0   0   0   0   0  0  7
  188 227   0   7  10   8  0  0
  189 10000   0   0   0   0  0  5
  190  52   0   0   0   0  0  6
  191   0   0   0   0   0  0  8
  192   0   0   0   0   0  0  2
  193 354   1   0   0   1  0  0
  194 216   0   0   0   0  0  3
  195 1267   2   5  11   2  0  0
  196  68   0   0   0   0  0  4
  197 544   0   6   0   0  2  0
  198   0   0   0   0   0  0  7
  199 227   0   7  12   8  0  0
  200 10000   0   0   0   0  0  5
  201  52   0   0   0   0  0  6
  202 354   3   0   0   1  0  0
  203 216   0   0   0   0  0  3
  204 1267   4   5  11   2  0  0
  205  68   0   0   0   0  0  4
  206 544   0   6   0   0  2  0
  207   0   0   0   0   0  0  7
  208 227   0   7  12   8  0  0
  209 10000   0   0   0   0  0  5
  210  52   0   0   0   0  0  6
  211 354   5   0   0   1  0  0
  212 216   0   0   0   0  0  3
  213 1267   6   5  11   2  0  0
  214  68   0   0   0   0  0  4
  215 544   0   6   0   0  2  0
  216   0   0   0   0   0  0  7
  217 227   0   7  12   8  0  0
  218 10000   0   0   0   0  0  5
  219  52   0   0   0   0  0  6
  220 354   7   0   0   1  0  0
  221 216   0   0   0   0  0  3
  222 1267   8   5  11   2  0  0
  223  68   0   0   0   0  0  4
  224 544   0   6   0   0  2  0
  225   0   0   0   0   0  0  7
  226 227   0   7  12   8  0  0
  227 10000   0   0   0   0  0  5
  228  52   0   0   0   0  0  6
  229 354   9   0   0   1  0  0
  230 216   0   0   0   0  0  3
  231 1267  10   5  11   2  0  0
  232  68   0   0   0   0  0  4
  233 544   0   6   0   0  2  0
  234   0   0   0   0   0  0  7
  235 227   0   7  12   8  0  0
  236 10000   0   0   0   0  0  5
  237  52   0   0   0   0  0  6
  238 354  11   0   0   1  0  0
  239 216   0   0   0   0  0  3
  240 1267  12   5  11   2  0  0
  241  68   0   0   0   0  0  4
  242 544   0   6   0   0  2  0
  243   0   0   0   0   0  0  7
  244 227   0   7  12   8  0  0
  245 10000   0   0   0   0  0  5
  246  52   0   0   0   0  0  6
  247 354  13   0   0   1  0  0
  248 216   0   0   0   0  0  3
  249 1267  14   5  11   2  0  0
  250  68   0   0   0   0  0  4
  251 544   0   6   0   0  2  0
  252   0   0   0   0   0  0  7
  253 227   0   7  12   8  0  0
  254 10000   0   0   0   0  0  5
  255  52   0   0   0   0  0  6
  256 354  15   0   0   1  0  0
  257 216   0   0   0   0  0  3
  258 1267  16   5  11   2  0  0
  259  68   0   0   0   0  0  4
  260 544   0   6   0   0  2  0
  261   0   0   0   0   0  0  7
  262 227   0   7  12   8  0  0
  263 10000   0   0   0   0  0  5
  264  52   0   0   0   0  0  6
  265 354  17   0   0   1  0  0
  266 216   0   0   0   0  0  3
  267 1267  18   5  11   2  0  0
  268  68   0   0   0   0  0  4
  269 544   0   6   0   0  2  0
  270   0   0   0   0   0  0  7
  271 227   0   7  12   8  0  0
  272 10000   0   0   0   0  0  5
  273  52   0   0   0   0  0  6
  274 354  19   0   0   1  0  0
  275 216   0   0   0   0  0  3
  276 1267  20   5  11   2  0  0
  277  68   0   0   0   0  0  4
  278 544   0   6   0   0  2  0
  279   0   0   0   0   0  0  7
  280 227   0   7  12   8  0  0
  281 10000   0   0   0   0  0  5
  282  52   0   0   0   0  0  6
  283 354  21   0   0   1  0  0
  284 216   0   0   0   0  0  3
  285 1267  22   5  11   2  0  0
  286  68   0   0   0   0  0  4
  287 544   0   6   0   0  2  0
  288   0   0   0   0   0  0  7
  289 227   0   7  12   8  0  0
  290 10000   0   0   0   0  0  5
  291  52   0   0   0   0  0  6
  292   0   0   0   0   0  0  8
  293   0   0   0   0   0  0  2
[RF]
1      441.855 1 2 3 1503 270 0 0 -16666.7 158.965 e
2       584.41 4 5 6 4408.8 1670 0 0 -5454.55 151.098 r
3      441.855 1 2 3 1503 270 0 0 -10000 96.0071 e
4       584.41 4 5 6 4408.8 1670 0 0 -3272.73 90.6588 r
5      441.855 1 2 3 1503 270 0 0 -3333.33 33.0496 e
6       584.41 4 5 6 4408.8 1670 0 0 -1090.91 30.2196 r
7      441.855 1 2 3 1503 270 0 0 3333.33 -29.908 e
8       584.41 4 5 6 4408.8 1670 0 0 1090.91 -30.2196 r
9      441.855 1 2 3 1503 270 0 0 10000 -92.8655 e
10       584.41 4 5 6 4408.8 1670 0 0 3272.73 -90.6588 r
11      441.855 1 2 3 1503 270 0 0 16666.7 -155.823 e
12       584.41 4 5 6 4408.8 1670 0 0 5454.55 -151.098 r
13      441.855 1 2 3 1503 270 0 0 -13333.3 127.486 e
14       584.41 4 5 6 4408.8 1670 0 0 -4363.64 120.878 r
15      441.855 1 2 3 1503 270 0 0 -6666.67 64.5283 e
16       584.41 4 5 6 4408.8 1670 0 0 -2181.82 60.4392 r
17      441.855 1 2 3 1503 270 0 0 0 1.5708 e
18       584.41 4 5 6 4408.8 1670 0 0 0 -0 r
19      441.855 1 2 3 1503 270 0 0 6666.67 -61.3867 e
20       584.41 4 5 6 4408.8 1670 0 0 2181.82 -60.4392 r
21      441.855 1 2 3 1503 270 0 0 13333.3 -124.344 e
22       584.41 4 5 6 4408.8 1670 0 0 4363.64 -120.878 r
23      441.855 1 2 3 1503 270 0 0 -16666.7 162.106 e
24      441.855 1 2 3 1503 270 0 0 -10000 99.1487 e
25      441.855 1 2 3 1503 270 0 0 -3333.33 36.1911 e
26      441.855 1 2 3 1503 270 0 0 3333.33 -26.7664 e
27      441.855 1 2 3 1503 270 0 0 10000 -89.7239 e
28      441.855 1 2 3 1503 270 0 0 16666.7 -152.681 e
29      441.855 1 2 3 1503 270 0 0 -13333.3 130.627 e
30      441.855 1 2 3 1503 270 0 0 -6666.67 67.6699 e
31      441.855 1 2 3 1503 270 0 0 0 4.71239 e
32      441.855 1 2 3 1503 270 0 0 6666.67 -58.2451 e
33      441.855 1 2 3 1503 270 0 0 13333.3 -121.203 e

# Format of arbitrary gradients:
#   time_shape_id of 0 means default timing (stepping with grad_raster starting at 1/2 of grad_raster)
# id amplitude first last amp_shape_id time_shape_id delay
# ..      Hz/m  Hz/m Hz/m        ..         ..          us
[GRADIENTS]
2  1.02111e+06            0            0 7 8 0
3            0           -0           -0 9 10 1650
4            0            0            0 9 10 1650

# Format of trapezoid gradients:
# id amplitude rise flat fall delay
# ..      Hz/m   us   us   us    us
[TRAP]
 1       333333 270 3000 270   0
 5       266332 210 1780 210 10470
 6      -200000 160 5120 160   0
 7           -0  10    0  10   0
 8  1.02041e+06 800  670 800   0
 9       257286 210 1780 210 10470
10      -257286 210 1780 210   0
11       255276 210 1780 210 10470
12      -255276 210 1780 210   0
13       253266 210 1780 210 10470
14      -253266 210 1780 210   0
15       251256 210 1780 210 10470
16      -251256 210 1780 210   0
17       249246 210 1780 210 10470
18      -249246 210 1780 210   0
19       247236 210 1780 210 10470
20      -247236 210 1780 210   0
21       245226 210 1780 210 10470
22      -245226 210 1780 210   0
23       243216 210 1780 210 10470
24      -243216 210 1780 210   0
25       241206 210 1780 210 10470
26      -241206 210 1780 210   0
27       239196 210 1780 210 10470
28      -239196 210 1780 210   0
29       237186 210 1780 210 10470
30      -237186 210 1780 210   0
31       235176 210 1780 210 10470
32      -235176 210 1780 210   0
33       233166 210 1780 210 10470
34      -233166 210 1780 210   0
35       231156 210 1780 210 10470
36      -231156 210 1780 210   0
37       229146 210 1780 210 10470
38      -229146 210 1780 210   0
39       227136 210 1780 210 10470
40      -227136 210 1780 210   0
41       225126 210 1780 210 10470
42      -225126 210 1780 210   0
43       223116 210 1780 210 10470
44      -223116 210 1780 210   0
45       221106 210 1780 210 10470
46      -221106 210 1780 210   0
47       219095 210 1780 210 10470
48      -219095 210 1780 210   0
49       217085 210 1780 210 10470
50      -217085 210 1780 210   0
51       215075 210 1780 210 10470
52      -215075 210 1780 210   0
53       213065 210 1780 210 10470
54      -213065 210 1780 210   0
55       211055 210 1780 210 10470
56      -211055 210 1780 210   0
57       209045 210 1780 210 10470
58      -209045 210 1780 210   0
59       207035 210 1780 210 10470
60      -207035 210 1780 210   0
61       205025 210 1780 210 10470
62      -205025 210 1780 210   0
63       203015 210 1780 210 10470
64      -203015 210 1780 210   0
65       201005 210 1780 210 10470
66      -201005 210 1780 210   0
67       198995 210 1780 210 10470
68      -198995 210 1780 210   0
69       196985 210 1780 210 10470
70      -196985 210 1780 210   0
71       194975 210 1780 210 10470
72      -194975 210 1780 210   0
73       192965 210 1780 210 10470
74      -192965 210 1780 210   0
75       190955 210 1780 210 10470
76      -190955 210 1780 210   0
77       188945 210 1780 210 10470
78      -188945 210 1780 210   0
79       186935 210 1780 210 10470
80      -186935 210 1780 210   0
81       184925 210 1780 210 10470
82      -184925 210 1780 210   0
83       182915 210 1780 210 10470
84      -182915 210 1780 210   0
85       180905 210 1780 210 10470
86      -180905 210 1780 210   0
87       178894 210 1780 210 10470
88      -178894 210 1780 210   0
89       176884 210 1780 210 10470
90      -176884 210 1780 210   0
91       174874 210 1780 210 10470
92      -174874 210 1780 210   0
93       172864 210 1780 210 10470
94      -172864 210 1780 210   0
95       170854 210 1780 210 10470
96      -170854 210 1780 210   0
97       168844 210 1780 210 10470
98      -168844 210 1780 210   0
99       166834 210 1780 210 10470
100      -166834 210 1780 210   0
101       164824 210 1780 210 10470
102      -164824 210 1780 210   0
103       162814 210 1780 210 10470
104      -162814 210 1780 210   0
105       160804 210 1780 210 10470
106      -160804 210 1780 210   0
107       158794 210 1780 210 10470
108      -158794 210 1780 210   0
109       156784 210 1780 210 10470
110      -156784 210 1780 210   0
111       154774 210 1780 210 10470
112      -154774 210 1780 210   0
113       152764 210 1780 210 10470
114      -152764 210 1780 210   0
115       150754 210 1780 210 10470
116      -150754 210 1780 210   0
117       148744 210 1780 210 10470
118      -148744 210 1780 210   0
119       146734 210 1780 210 10470
120      -146734 210 1780 210   0
121       144724 210 1780 210 10470
122      -144724 210 1780 210   0
123       142714 210 1780 210 10470
124      -142714 210 1780 210   0
125       140704 210 1780 210 10470
126      -140704 210 1780 210   0
127       138693 210 1780 210 10470
128      -138693 210 1780 210   0
129       136683 210 1780 210 10470
130      -136683 210 1780 210   0
131       134673 210 1780 210 10470
132      -134673 210 1780 210   0
133       132663 210 1780 210 10470
134      -132663 210 1780 210   0
135       130653 210 1780 210 10470
136      -130653 210 1780 210   0
137       128643 210 1780 210 10470
138      -128643 210 1780 210   0
139       126633 210 1780 210 10470
140      -126633 210 1780 210   0
141       124623 210 1780 210 10470
142      -124623 210 1780 210   0
143       122613 210 1780 210 10470
144      -122613 210 1780 210   0
145       120603 210 1780 210 10470
146      -120603 210 1780 210   0
147       118593 210 1780 210 10470
148      -118593 210 1780 210   0
149       116583 210 1780 210 10470
150      -116583 210 1780 210   0
151       114573 210 1780 210 10470
152      -114573 210 1780 210   0
153       112563 210 1780 210 10470
154      -112563 210 1780 210   0
155       110553 210 1780 210 10470
156      -110553 210 1780 210   0
157       108543 210 1780 210 10470
158      -108543 210 1780 210   0
159       106533 210 1780 210 10470
160      -106533 210 1780 210   0
161       104523 210 1780 210 10470
162      -104523 210 1780 210   0
163       102513 210 1780 210 10470
164      -102513 210 1780 210   0
165       100503 210 1780 210 10470
166      -100503 210 1780 210   0
167      98492.5 210 1780 210 10470
168     -98492.5 210 1780 210   0
169      96482.4 210 1780 210 10470
170     -96482.4 210 1780 210   0
171      94472.4 210 1780 210 10470
172     -94472.4 210 1780 210   0
173      92462.3 210 1780 210 10470
174     -92462.3 210 1780 210   0
175      90452.3 210 1780 210 10470
176     -90452.3 210 1780 210   0
177      88442.2 210 1780 210 10470
178     -88442.2 210 1780 210   0
179      86432.2 210 1780 210 10470
180     -86432.2 210 1780 210   0
181      84422.1 210 1780 210 10470
182     -84422.1 210 1780 210   0
183      82412.1 210 1780 210 10470
184     -82412.1 210 1780 210   0
185        80402 210 1780 210 10470
186       -80402 210 1780 210   0
187        78392 210 1780 210 10470
188       -78392 210 1780 210   0
189      76381.9 210 1780 210 10470
190     -76381.9 210 1780 210   0
191      74371.9 210 1780 210 10470
192     -74371.9 210 1780 210   0
193      72361.8 210 1780 210 10470
194     -72361.8 210 1780 210   0
195      70351.8 210 1780 210 10470
196     -70351.8 210 1780 210   0
197      68341.7 210 1780 210 10470
198     -68341.7 210 1780 210   0
199      66331.7 210 1780 210 10470
200     -66331.7 210 1780 210   0
201      64321.6 210 1780 210 10470
202     -64321.6 210 1780 210   0
203      62311.6 210 1780 210 10470
204     -62311.6 210 1780 210   0
205      60301.5 210 1780 210 10470
206     -60301.5 210 1780 210   0
207      58291.5 210 1780 210 10470
208     -58291.5 210 1780 210   0
209      56281.4 210 1780 210 10470
210     -56281.4 210 1780 210   0
211      54271.4 210 1780 210 10470
212     -54271.4 210 1780 210   0
213      52261.3 210 1780 210 10470
214     -52261.3 210 1780 210   0
215      50251.3 210 1780 210 10470
216     -50251.3 210 1780 210   0
217      48241.2 210 1780 210 10470
218     -48241.2 210 1780 210   0
219      46231.2 210 1780 210 10470
220     -46231.2 210 1780 210   0
221      44221.1 210 1780 210 10470
222     -44221.1 210 1780 210   0
223      42211.1 210 1780 210 10470
224     -42211.1 210 1780 210   0
225        40201 210 1780 210 10470
226       -40201 210 1780 210   0
227        38191 210 1780 210 10470
228       -38191 210 1780 210   0
229      36180.9 210 1780 210 10470
230     -36180.9 210 1780 210   0
231      34170.9 210 1780 210 10470
232     -34170.9 210 1780 210   0
233      32160.8 210 1780 210 10470
234     -32160.8 210 1780 210   0
235      30150.8 210 1780 210 10470
236     -30150.8 210 1780 210   0
237      28140.7 210 1780 210 10470
238     -28140.7 210 1780 210   0
239      26130.7 210 1780 210 10470
240     -26130.7 210 1780 210   0
241      24120.6 210 1780 210 10470
242     -24120.6 210 1780 210   0
243      22110.6 210 1780 210 10470
244     -22110.6 210 1780 210   0
245      20100.5 210 1780 210 10470
246     -20100.5 210 1780 210   0
247      18090.5 210 1780 210 10470
248     -18090.5 210 1780 210   0
249      16080.4 210 1780 210 10470
250     -16080.4 210 1780 210   0
251      14070.4 210 1780 210 10470
252     -14070.4 210 1780 210   0
253      12060.3 210 1780 210 10470
254     -12060.3 210 1780 210   0
255      10050.3 210 1780 210 10470
256     -10050.3 210 1780 210   0
257       8040.2 210 1780 210 10470
258      -8040.2 210 1780 210   0
259      6030.15 210 1780 210 10470
260     -6030.15 210 1780 210   0
261       4020.1 210 1780 210 10470
262      -4020.1 210 1780 210   0
263      2010.05 210 1780 210 10470
264     -2010.05 210 1780 210   0
265           -0 210 1780 210 10470
266            0 210 1780 210   0
267     -2010.05 210 1780 210 10470
268      2010.05 210 1780 210   0
269      -4020.1 210 1780 210 10470
270       4020.1 210 1780 210   0
271     -6030.15 210 1780 210 10470
272      6030.15 210 1780 210   0
273      -8040.2 210 1780 210 10470
274       8040.2 210 1780 210   0
275     -10050.3 210 1780 210 10470
276      10050.3 210 1780 210   0
277     -12060.3 210 1780 210 10470
278      12060.3 210 1780 210   0
279     -14070.4 210 1780 210 10470
280      14070.4 210 1780 210   0
281     -16080.4 210 1780 210 10470
282      16080.4 210 1780 210   0
283     -18090.5 210 1780 210 10470
284      18090.5 210 1780 210   0
285     -20100.5 210 1780 210 10470
286      20100.5 210 1780 210   0
287     -22110.6 210 1780 210 10470
288      22110.6 210 1780 210   0
289     -24120.6 210 1780 210 10470
290      24120.6 210 1780 210   0
291     -26130.7 210 1780 210 10470
292      26130.7 210 1780 210   0
293     -28140.7 210 1780 210 10470
294      28140.7 210 1780 210   0
295     -30150.8 210 1780 210 10470
296      30150.8 210 1780 210   0
297     -32160.8 210 1780 210 10470
298      32160.8 210 1780 210   0
299     -34170.9 210 1780 210 10470
300      34170.9 210 1780 210   0
301     -36180.9 210 1780 210 10470
302      36180.9 210 1780 210   0
303       -38191 210 1780 210 10470
304        38191 210 1780 210   0
305       -40201 210 1780 210 10470
306        40201 210 1780 210   0
307     -42211.1 210 1780 210 10470
308      42211.1 210 1780 210   0
309     -44221.1 210 1780 210 10470
310      44221.1 210 1780 210   0
311     -46231.2 210 1780 210 10470
312      46231.2 210 1780 210   0
313     -48241.2 210 1780 210 10470
314      48241.2 210 1780 210   0
315     -50251.3 210 1780 210 10470
316      50251.3 210 1780 210   0
317     -52261.3 210 1780 210 10470
318      52261.3 210 1780 210   0
319     -54271.4 210 1780 210 10470
320      54271.4 210 1780 210   0
321     -56281.4 210 1780 210 10470
322      56281.4 210 1780 210   0
323     -58291.5 210 1780 210 10470
324      58291.5 210 1780 210   0
325     -60301.5 210 1780 210 10470
326      60301.5 210 1780 210   0
327     -62311.6 210 1780 210 10470
328      62311.6 210 1780 210   0
329     -64321.6 210 1780 210 10470
330      64321.6 210 1780 210   0
331     -66331.7 210 1780 210 10470
332      66331.7 210 1780 210   0
333     -68341.7 210 1780 210 10470
334      68341.7 210 1780 210   0
335     -70351.8 210 1780 210 10470
336      70351.8 210 1780 210   0
337     -72361.8 210 1780 210 10470
338      72361.8 210 1780 210   0
339     -74371.9 210 1780 210 10470
340      74371.9 210 1780 210   0
341     -76381.9 210 1780 210 10470
342      76381.9 210 1780 210   0
343       -78392 210 1780 210 10470
344        78392 210 1780 210   0
345       -80402 210 1780 210 10470
346        80402 210 1780 210   0
347     -82412.1 210 1780 210 10470
348      82412.1 210 1780 210   0
349     -84422.1 210 1780 210 10470
350      84422.1 210 1780 210   0
351     -86432.2 210 1780 210 10470
352      86432.2 210 1780 210   0
353     -88442.2 210 1780 210 10470
354      88442.2 210 1780 210   0
355     -90452.3 210 1780 210 10470
356      90452.3 210 1780 210   0
357     -92462.3 210 1780 210 10470
358      92462.3 210 1780 210   0
359     -94472.4 210 1780 210 10470
360      94472.4 210 1780 210   0
361     -96482.4 210 1780 210 10470
362      96482.4 210 1780 210   0
363     -98492.5 210 1780 210 10470
364      98492.5 210 1780 210   0
365      -100503 210 1780 210 10470
366       100503 210 1780 210   0
367      -102513 210 1780 210 10470
368       102513 210 1780 210   0
369      -104523 210 1780 210 10470
370       104523 210 1780 210   0
371      -106533 210 1780 210 10470
372       106533 210 1780 210   0
373      -108543 210 1780 210 10470
374       108543 210 1780 210   0
375      -110553 210 1780 210 10470
376       110553 210 1780 210   0
377      -112563 210 1780 210 10470
378       112563 210 1780 210   0
379      -114573 210 1780 210 10470
380       114573 210 1780 210   0
381      -116583 210 1780 210 10470
382       116583 210 1780 210   0
383      -118593 210 1780 210 10470
384       118593 210 1780 210   0
385      -120603 210 1780 210 10470
386       120603 210 1780 210   0
387      -122613 210 1780 210 10470
388       122613 210 1780 210   0
389      -124623 210 1780 210 10470
390       124623 210 1780 210   0
391      -126633 210 1780 210 10470
392       126633 210 1780 210   0
393      -128643 210 1780 210 10470
394       128643 210 1780 210   0
395      -130653 210 1780 210 10470
396       130653 210 1780 210   0
397      -132663 210 1780 210 10470
398       132663 210 1780 210   0
399      -134673 210 1780 210 10470
400       134673 210 1780 210   0
401      -136683 210 1780 210 10470
402       136683 210 1780 210   0
403      -138693 210 1780 210 10470
404       138693 210 1780 210   0
405      -140704 210 1780 210 10470
406       140704 210 1780 210   0
407      -142714 210 1780 210 10470
408       142714 210 1780 210   0
409      -144724 210 1780 210 10470
410       144724 210 1780 210   0
411      -146734 210 1780 210 10470
412       146734 210 1780 210   0
413      -148744 210 1780 210 10470
414       148744 210 1780 210   0
415      -150754 210 1780 210 10470
416       150754 210 1780 210   0
417      -152764 210 1780 210 10470
418       152764 210 1780 210   0
419      -154774 210 1780 210 10470
420       154774 210 1780 210   0
421      -156784 210 1780 210 10470
422       156784 210 1780 210   0
423      -158794 210 1780 210 10470
424       158794 210 1780 210   0
425      -160804 210 1780 210 10470
426       160804 210 1780 210   0
427      -162814 210 1780 210 10470
428       162814 210 1780 210   0
429      -164824 210 1780 210 10470
430       164824 210 1780 210   0
431      -166834 210 1780 210 10470
432       166834 210 1780 210   0
433      -168844 210 1780 210 10470
434       168844 210 1780 210   0
435      -170854 210 1780 210 10470
436       170854 210 1780 210   0
437      -172864 210 1780 210 10470
438       172864 210 1780 210   0
439      -174874 210 1780 210 10470
440       174874 210 1780 210   0
441      -176884 210 1780 210 10470
442       176884 210 1780 210   0
443      -178894 210 1780 210 10470
444       178894 210 1780 210   0
445      -180905 210 1780 210 10470
446       180905 210 1780 210   0
447      -182915 210 1780 210 10470
448       182915 210 1780 210   0
449      -184925 210 1780 210 10470
450       184925 210 1780 210   0
451      -186935 210 1780 210 10470
452       186935 210 1780 210   0
453      -188945 210 1780 210 10470
454       188945 210 1780 210   0
455      -190955 210 1780 210 10470
456       190955 210 1780 210   0
457      -192965 210 1780 210 10470
458       192965 210 1780 210   0
459      -194975 210 1780 210 10470
460       194975 210 1780 210   0
461      -196985 210 1780 210 10470
462       196985 210 1780 210   0
463      -198995 210 1780 210 10470
464       198995 210 1780 210   0
465      -201005 210 1780 210 10470
466       201005 210 1780 210   0
467      -203015 210 1780 210 10470
468       203015 210 1780 210   0
469      -205025 210 1780 210 10470
470       205025 210 1780 210   0
471      -207035 210 1780 210 10470
472       207035 210 1780 210   0
473      -209045 210 1780 210 10470
474       209045 210 1780 210   0
475      -211055 210 1780 210 10470
476       211055 210 1780 210   0
477      -213065 210 1780 210 10470
478       213065 210 1780 210   0
479      -215075 210 1780 210 10470
480       215075 210 1780 210   0
481      -217085 210 1780 210 10470
482       217085 210 1780 210   0
483      -219095 210 1780 210 10470
484       219095 210 1780 210   0
485      -221106 210 1780 210 10470
486       221106 210 1780 210   0
487      -223116 210 1780 210 10470
488       223116 210 1780 210   0
489      -225126 210 1780 210 10470
490       225126 210 1780 210   0
491      -227136 210 1780 210 10470
492       227136 210 1780 210   0
493      -229146 210 1780 210 10470
494       229146 210 1780 210   0
495      -231156 210 1780 210 10470
496       231156 210 1780 210   0
497      -233166 210 1780 210 10470
498       233166 210 1780 210   0
499      -235176 210 1780 210 10470
500       235176 210 1780 210   0
501      -237186 210 1780 210 10470
502       237186 210 1780 210   0
503      -239196 210 1780 210 10470
504       239196 210 1780 210   0
505      -241206 210 1780 210 10470
506       241206 210 1780 210   0
507      -243216 210 1780 210 10470
508       243216 210 1780 210   0
509      -245226 210 1780 210 10470
510       245226 210 1780 210   0
511      -247236 210 1780 210 10470
