# Pulseq sequence file
# Created by MATLAB mr toolbox

[VERSION]
major 1
minor 5
revision 0

[DEFINITIONS]
AccelerationFactorPE 2 
AdcRasterTime 1e-07 
BlockDurationRaster 1e-05 
FOV 0.22 0.22 0.0465 
FirstFourierLine 1 
FirstRefLine 22 
GradientRasterTime 1e-05 
Name epi 
PhaseEncodingLine_DIFF 146 
PhaseResolution 1 
RadiofrequencyRasterTime 1e-06 
ReadoutOversamplingFactor 2 
ReceiverGainHigh 1 
RefLinesPE 30 
SliceGap 0 
SlicePositions -0.0225 -0.0195 -0.0165 -0.0135 -0.0105 -0.0075 -0.0045 -0.0015 0.0015 0.0045 0.0075 0.0105 0.0135 0.0165 0.0195 0.0225 -0.021 -0.018 -0.015 -0.012 -0.009 -0.006 -0.003 0 0.003 0.006 0.009 0.012 0.015 0.018 0.021 
SliceThickness 0.0015 
TargetGriddedSamples 292 
TotalDuration 177.44837 
TrapezoidGriddingParameters 0.00023 0.00023 0.00023 5.3e-05 0.000584 
kSpaceCenterLine 37 

# Format of blocks:
# NUM DUR RF  GX  GY  GZ  ADC  EXT
[BLOCKS]
    1   0   0   0   0   0  0  3
    2  65   0   0   0   0  1  4
    3   0   0   0   0   0  0  5
    4   0   0   0   0   0  0  6
    5 350   0   1   1   1  0  0
    6 1163   1   2   2   2  0  0
    7 373   2   0   0   3  0  7
    8  97   0   4   0   5  0  9
    9   0   0   0   0   0  0 10
   10   0   0   0   0   0  0 13
   11  69   0   6   0   0  1  0
   12   0   0   0   0   0  0 16
   13  69   0   7   0   0  1  0
   14   0   0   0   0   0  0 17
   15  69   0   6   0   0  1  0
   16  46   0   8   0   0  0  9
   17 2706   0   0   0   0  0  0
   18 707   3  10  10   9  0  0
   19 1871   0   0   0   0  0  0
   20   0   0   0   0   0  0 18
   21  97   0   4  11   0  0 20
   22  69   0   6  12   0  0 23
   23  69   0   7  13   0  0 25
   24  69   0   6  13   0  0 23
   25  69   0   7  13   0  1 25
   26  69   0   6  13   0  1 23
   27  69   0   7  13   0  1 25
   28  69   0   6  13   0  1 23
   29  69   0   7  13   0  1 25
   30  69   0   6  13   0  1 23
   31  69   0   7  13   0  1 25
   32  69   0   6  13   0  1 23
   33  69   0   7  13   0  1 25
   34  69   0   6  13   0  1 23
   35  69   0   7  13   0  1 25
   36  69   0   6  13   0  1 23
   37  69   0   7  13   0  1 25
   38  69   0   6  13   0  1 23
   39  69   0   7  13   0  1 25
   40  69   0   6  13   0  1 23
   41  69   0   7  13   0  1 25
   42  69   0   6  13   0  1 23
   43  69   0   7  13   0  1 25
   44  69   0   6  13   0  1 23
   45  69   0   7  13   0  1 25
   46  69   0   6  13   0  1 23
   47  69   0   7  13   0  1 25
   48  69   0   6  13   0  1 23
   49  69   0   7  13   0  1 25
   50  69   0   6  13   0  1 23
   51  69   0   7  13   0  1 25
   52  69   0   6  13   0  1 23
   53  69   0   7  13   0  1 25
   54  69   0   6  13   0  1 23
   55  69   0   7  13   0  0 25
   56  69   0   6  13   0  0 23
   57  69   0   7  13   0  0 25
   58  69   0   6  13   0  0 23
   59  69   0   7  14   0  0 25
   60  58   0  16  15   0  0  0
   61 2515   0   0   0   0  0  0
   62   0   0   0   0   0  0 26
   63 350   0   1   1   1  0  0
   64 1163   1   2   2   2  0  0
   65 373   4   0   0   3  0  7
   66  97   0   4   0   5  0  9
   67   0   0   0   0   0  0 10
   68   0   0   0   0   0  0 13
   69  69   0   6   0   0  1  0
   70   0   0   0   0   0  0 16
   71  69   0   7   0   0  1  0
   72   0   0   0   0   0  0 17
   73  69   0   6   0   0  1  0
   74  46   0   8   0   0  0  9
   75 2706   0   0   0   0  0  0
   76 707   5  10  10   9  0  0
   77 1871   0   0   0   0  0  0
   78   0   0   0   0   0  0 18
   79  97   0   4  11   0  0 20
   80  69   0   6  12   0  0 23
   81  69   0   7  13   0  0 25
   82  69   0   6  13   0  0 23
   83  69   0   7  13   0  1 25
   84  69   0   6  13   0  1 23
   85  69   0   7  13   0  1 25
   86  69   0   6  13   0  1 23
   87  69   0   7  13   0  1 25
   88  69   0   6  13   0  1 23
   89  69   0   7  13   0  1 25
   90  69   0   6  13   0  1 23
   91  69   0   7  13   0  1 25
   92  69   0   6  13   0  1 23
   93  69   0   7  13   0  1 25
   94  69   0   6  13   0  1 23
   95  69   0   7  13   0  1 25
   96  69   0   6  13   0  1 23
   97  69   0   7  13   0  1 25
   98  69   0   6  13   0  1 23
   99  69   0   7  13   0  1 25
  100  69   0   6  13   0  1 23
  101  69   0   7  13   0  1 25
  102  69   0   6  13   0  1 23
  103  69   0   7  13   0  1 25
  104  69   0   6  13   0  1 23
  105  69   0   7  13   0  1 25
  106  69   0   6  13   0  1 23
  107  69   0   7  13   0  1 25
  108  69   0   6  13   0  1 23
  109  69   0   7  13   0  1 25
  110  69   0   6  13   0  1 23
  111  69   0   7  13   0  1 25
  112  69   0   6  13   0  1 23
  113  69   0   7  13   0  0 25
  114  69   0   6  13   0  0 23
  115  69   0   7  13   0  0 25
  116  69   0   6  13   0  0 23
  117  69   0   7  14   0  0 25
  118  58   0  16  15   0  0  0
  119 2515   0   0   0   0  0  0
  120   0   0   0   0   0  0 26
  121 350   0   1   1   1  0  0
  122 1163   1   2   2   2  0  0
  123 373   6   0   0   3  0  7
  124  97   0   4   0   5  0  9
  125   0   0   0   0   0  0 10
  126   0   0   0   0   0  0 13
  127  69   0   6   0   0  1  0
  128   0   0   0   0   0  0 16
  129  69   0   7   0   0  1  0
  130   0   0   0   0   0  0 17
  131  69   0   6   0   0  1  0
  132  46   0   8   0   0  0  9
  133 2706   0   0   0   0  0  0
  134 707   7  10  10   9  0  0
  135 1871   0   0   0   0  0  0
  136   0   0   0   0   0  0 18
  137  97   0   4  11   0  0 20
  138  69   0   6  12   0  0 23
  139  69   0   7  13   0  0 25
  140  69   0   6  13   0  0 23
  141  69   0   7  13   0  1 25
  142  69   0   6  13   0  1 23
  143  69   0   7  13   0  1 25
  144  69   0   6  13   0  1 23
  145  69   0   7  13   0  1 25
  146  69   0   6  13   0  1 23
  147  69   0   7  13   0  1 25
  148  69   0   6  13   0  1 23
  149  69   0   7  13   0  1 25
  150  69   0   6  13   0  1 23
  151  69   0   7  13   0  1 25
  152  69   0   6  13   0  1 23
  153  69   0   7  13   0  1 25
  154  69   0   6  13   0  1 23
  155  69   0   7  13   0  1 25
  156  69   0   6  13   0  1 23
  157  69   0   7  13   0  1 25
  158  69   0   6  13   0  1 23
  159  69   0   7  13   0  1 25
  160  69   0   6  13   0  1 23
  161  69   0   7  13   0  1 25
  162  69   0   6  13   0  1 23
  163  69   0   7  13   0  1 25
  164  69   0   6  13   0  1 23
  165  69   0   7  13   0  1 25
  166  69   0   6  13   0  1 23
  167  69   0   7  13   0  1 25
  168  69   0   6  13   0  1 23
  169  69   0   7  13   0  1 25
  170  69   0   6  13   0  1 23
  171  69   0   7  13   0  0 25
  172  69   0   6  13   0  0 23
  173  69   0   7  13   0  0 25
  174  69   0   6  13   0  0 23
  175  69   0   7  14   0  0 25
  176  58   0  16  15   0  0  0
  177 2515   0   0   0   0  0  0
  178   0   0   0   0   0  0 26
  179 350   0   1   1   1  0  0
  180 1163   1   2   2   2  0  0
  181 373   8   0   0   3  0  7
  182  97   0   4   0   5  0  9
  183   0   0   0   0   0  0 10
  184   0   0   0   0   0  0 13
  185  69   0   6   0   0  1  0
  186   0   0   0   0   0  0 16
  187  69   0   7   0   0  1  0
  188   0   0   0   0   0  0 17
  189  69   0   6   0   0  1  0
  190  46   0   8   0   0  0  9
  191 2706   0   0   0   0  0  0
  192 707   9  10  10   9  0  0
  193 1871   0   0   0   0  0  0
  194   0   0   0   0   0  0 18
  195  97   0   4  11   0  0 20
  196  69   0   6  12   0  0 23
  197  69   0   7  13   0  0 25
  198  69   0   6  13   0  0 23
  199  69   0   7  13   0  1 25
  200  69   0   6  13   0  1 23
  201  69   0   7  13   0  1 25
  202  69   0   6  13   0  1 23
  203  69   0   7  13   0  1 25
  204  69   0   6  13   0  1 23
  205  69   0   7  13   0  1 25
  206  69   0   6  13   0  1 23
  207  69   0   7  13   0  1 25
  208  69   0   6  13   0  1 23
  209  69   0   7  13   0  1 25
  210  69   0   6  13   0  1 23
  211  69   0   7  13   0  1 25
  212  69   0   6  13   0  1 23
  213  69   0   7  13   0  1 25
  214  69   0   6  13   0  1 23
  215  69   0   7  13   0  1 25
  216  69   0   6  13   0  1 23
  217  69   0   7  13   0  1 25
  218  69   0   6  13   0  1 23
  219  69   0   7  13   0  1 25
  220  69   0   6  13   0  1 23
  221  69   0   7  13   0  1 25
  222  69   0   6  13   0  1 23
  223  69   0   7  13   0  1 25
  224  69   0   6  13   0  1 23
  225  69   0   7  13   0  1 25
  226  69   0   6  13   0  1 23
  227  69   0   7  13   0  1 25
  228  69   0   6  13   0  1 23
  229  69   0   7  13   0  0 25
  230  69   0   6  13   0  0 23
  231  69   0   7  13   0  0 25
  232  69   0   6  13   0  0 23
  233  69   0   7  14   0  0 25
  234  58   0  16  15   0  0  0
  235 2515   0   0   0   0  0  0
  236   0   0   0   0   0  0 26
  237 350   0   1   1   1  0  0
  238 1163   1   2   2   2  0  0
  239 373  10   0   0   3  0  7
  240  97   0   4   0   5  0  9
  241   0   0   0   0   0  0 10
  242   0   0   0   0   0  0 13
  243  69   0   6   0   0  1  0
  244   0   0   0   0   0  0 16
  245  69   0   7   0   0  1  0
  246   0   0   0   0   0  0 17
  247  69   0   6   0   0  1  0
  248  46   0   8   0   0  0  9
  249 2706   0   0   0   0  0  0
  250 707  11  10  10   9  0  0
  251 1871   0   0   0   0  0  0
  252   0   0   0   0   0  0 18
  253  97   0   4  11   0  0 20
  254  69   0   6  12   0  0 23
  255  69   0   7  13   0  0 25
  256  69   0   6  13   0  0 23
  257  69   0   7  13   0  1 25
  258  69   0   6  13   0  1 23
  259  69   0   7  13   0  1 25
  260  69   0   6  13   0  1 23
  261  69   0   7  13   0  1 25
  262  69   0   6  13   0  1 23
  263  69   0   7  13   0  1 25
  264  69   0   6  13   0  1 23
  265  69   0   7  13   0  1 25
  266  69   0   6  13   0  1 23
  267  69   0   7  13   0  1 25
  268  69   0   6  13   0  1 23
  269  69   0   7  13   0  1 25
  270  69   0   6  13   0  1 23
  271  69   0   7  13   0  1 25
  272  69   0   6  13   0  1 23
  273  69   0   7  13   0  1 25
  274  69   0   6  13   0  1 23
  275  69   0   7  13   0  1 25
  276  69   0   6  13   0  1 23
  277  69   0   7  13   0  1 25
  278  69   0   6  13   0  1 23
  279  69   0   7  13   0  1 25
  280  69   0   6  13   0  1 23
  281  69   0   7  13   0  1 25
  282  69   0   6  13   0  1 23
  283  69   0   7  13   0  1 25
  284  69   0   6  13   0  1 23
[RF]
1      129.712 2 3 0 4000 100 -3.45 0.086708 0 0 s
2       292.11 4 5 6 1725 140 0 0 -12465.8 135.11 e
3      845.482 7 8 9 2880.75 660 0 0 11473.4 -209.243 r
4       292.11 4 5 6 1725 140 0 0 -10803.7 117.096 e
5      845.482 7 8 9 2880.75 660 0 0 9943.64 -181.554 r
6       292.11 4 5 6 1725 140 0 0 -9141.58 99.081 e
7      845.482 7 8 9 2880.75 660 0 0 8413.85 -153.864 r
8       292.11 4 5 6 1725 140 0 0 -7479.48 81.0663 e
9      845.482 7 8 9 2880.75 660 0 0 6884.06 -126.174 r
10       292.11 4 5 6 1725 140 0 0 -5817.37 63.0515 e
11      845.482 7 8 9 2880.75 660 0 0 5354.27 -98.4846 r
12       292.11 4 5 6 1725 140 0 0 -4155.27 45.0368 e
13      845.482 7 8 9 2880.75 660 0 0 3824.48 -70.7949 r
14       292.11 4 5 6 1725 140 0 0 -2493.16 27.0221 e
15      845.482 7 8 9 2880.75 660 0 0 2294.69 -43.1053 r
16       292.11 4 5 6 1725 140 0 0 -831.053 9.00736 e
17      845.482 7 8 9 2880.75 660 0 0 764.895 -15.4156 r
18       292.11 4 5 6 1725 140 0 0 831.053 -9.00736 e
19      845.482 7 8 9 2880.75 660 0 0 -764.895 12.274 r
20       292.11 4 5 6 1725 140 0 0 2493.16 -27.0221 e
21      845.482 7 8 9 2880.75 660 0 0 -2294.69 39.9637 r
22       292.11 4 5 6 1725 140 0 0 4155.27 -45.0368 e
23      845.482 7 8 9 2880.75 660 0 0 -3824.48 67.6533 r
24       292.11 4 5 6 1725 140 0 0 5817.37 -63.0515 e
25      845.482 7 8 9 2880.75 660 0 0 -5354.27 95.343 r
26       292.11 4 5 6 1725 140 0 0 7479.48 -81.0663 e
27      845.482 7 8 9 2880.75 660 0 0 -6884.06 123.033 r
28       292.11 4 5 6 1725 140 0 0 9141.58 -99.081 e
29      845.482 7 8 9 2880.75 660 0 0 -8413.85 150.722 r
30       292.11 4 5 6 1725 140 0 0 10803.7 -117.096 e
31      845.482 7 8 9 2880.75 660 0 0 -9943.64 178.412 r
32       292.11 4 5 6 1725 140 0 0 12465.8 -135.11 e
33      845.482 7 8 9 2880.75 660 0 0 -11473.4 206.102 r
34       292.11 4 5 6 1725 140 0 0 -11634.7 126.103 e
35      845.482 7 8 9 2880.75 660 0 0 10708.5 -195.398 r
36       292.11 4 5 6 1725 140 0 0 -9972.64 108.088 e
37      845.482 7 8 9 2880.75 660 0 0 9178.74 -167.709 r
38       292.11 4 5 6 1725 140 0 0 -8310.53 90.0736 e
39      845.482 7 8 9 2880.75 660 0 0 7648.95 -140.019 r
40       292.11 4 5 6 1725 140 0 0 -6648.42 72.0589 e
41      845.482 7 8 9 2880.75 660 0 0 6119.16 -112.329 r
42       292.11 4 5 6 1725 140 0 0 -4986.32 54.0442 e
43      845.482 7 8 9 2880.75 660 0 0 4589.37 -84.6397 r
44       292.11 4 5 6 1725 140 0 0 -3324.21 36.0295 e
45      845.482 7 8 9 2880.75 660 0 0 3059.58 -56.9501 r
46       292.11 4 5 6 1725 140 0 0 -1662.11 18.0147 e
47      845.482 7 8 9 2880.75 660 0 0 1529.79 -29.2604 r
48       292.11 4 5 6 1725 140 0 0 0 -0 e
49      845.482 7 8 9 2880.75 660 0 0 -0 -1.5708 r
50       292.11 4 5 6 1725 140 0 0 1662.11 -18.0147 e
51      845.482 7 8 9 2880.75 660 0 0 -1529.79 26.1189 r
52       292.11 4 5 6 1725 140 0 0 3324.21 -36.0295 e
53      845.482 7 8 9 2880.75 660 0 0 -3059.58 53.8085 r
54       292.11 4 5 6 1725 140 0 0 4986.32 -54.0442 e
55      845.482 7 8 9 2880.75 660 0 0 -4589.37 81.4981 r
56       292.11 4 5 6 1725 140 0 0 6648.42 -72.0589 e
57      845.482 7 8 9 2880.75 660 0 0 -6119.16 109.188 r
58       292.11 4 5 6 1725 140 0 0 8310.53 -90.0736 e
59      845.482 7 8 9 2880.75 660 0 0 -7648.95 136.877 r
60       292.11 4 5 6 1725 140 0 0 9972.64 -108.088 e
61      845.482 7 8 9 2880.75 660 0 0 -9178.74 164.567 r
62       292.11 4 5 6 1725 140 0 0 11634.7 -126.103 e
63      845.482 7 8 9 2880.75 660 0 0 -10708.5 192.257 r

# Format of arbitrary gradients:
#   time_shape_id of 0 means default timing (stepping with grad_raster starting at 1/2 of grad_raster)
# id amplitude first last amp_shape_id time_shape_id delay
# ..      Hz/m  Hz/m Hz/m        ..         ..          us
[GRADIENTS]
9 -1.63491e+06           -0           -0 10 11 0
10 -1.63491e+06           -0           -0 12 11 0
12      -113636            0      -113636 13 14 660
13      -113636      -113636      -113636 15 16 0
14      -113636      -113636            0 17 18 0
17            0            0            0 19 20 0
19      -181818            0      -181818 13 21 650
20      -181818      -181818      -181818 15 22 0
21      -181818      -181818            0 17 23 0
24  5.36072e+06            0            0 24 20 0
25 -2.61042e+06           -0           -0 24 20 0
26  5.31423e+06            0            0 24 20 0
27 -2.70381e+06           -0           -0 24 20 0

# Format of trapezoid gradients:
# id amplitude rise flat fall delay
# ..      Hz/m   us   us   us    us
[TRAP]
 1  1.02192e+06 500 2500 500   0
 2 -1.02192e+06 500 2500 500 8130
 3       554035 140 3450 140   0
 4  1.46484e+06 230    0 230 510
 5 -1.91249e+06 450   70 450   0
 6 -1.46484e+06 230  230 230   0
 7  1.46484e+06 230  230 230   0
 8  1.46484e+06 230    0 230   0
11      86124.4  20  930  20   0
15       159933  40  500  40   0
16 -1.16177e+06 290    0 290   0
18       174081  30  910  30   0
22  1.16177e+06 290    0 290   0
23       884521 210  160 210   0

# Format of ADC events:
# id num dwell delay freqPPM phasePPM freq phase phase_id
# ..  ..    ns    us     ppm  rad/MHz   Hz   rad       ..
[ADC]
1 292 2000 53 0 0 0 0 1

# Format of extension lists:
# id type ref next_id
# next_id of 0 terminates the list
# Extension list is followed by extension specifications
[EXTENSIONS]
1 1 1 0
2 1 2 1
3 1 3 2
4 1 4 0
5 1 5 0
6 1 2 0
7 3 1 0
8 1 6 0
9 1 7 8
10 1 8 0
11 1 9 0
12 1 10 11
13 1 11 12
14 1 11 0
15 1 12 14
16 1 13 15
17 1 14 12
18 1 15 0
19 1 16 14
20 1 17 19
21 4 1 0
22 1 9 21
23 1 10 22
24 1 12 21
25 1 13 24
26 4 2 0
27 1 7 0
28 1 17 27
29 1 11 1
30 1 17 29
31 4 3 0
32 1 12 31
33 1 13 32
34 1 9 31
35 1 10 34
36 4 4 0

# Extension specification for digital output and input triggers:
# id type channel delay (us) duration (us)
extension TRIGGERS 3
1 1 1 0 100

# Extension specification for setting labels:
# id set labelstring
extension LABELSET 1
1 0 LIN
2 0 SLC
3 0 REP
4 1 NOISE
5 0 NOISE
6 1 NAV
7 37 LIN
8 0 REF
9 0 REV
10 0 SEG
11 0 AVG
12 1 REV
13 1 SEG
14 1 AVG
15 1 REF
16 18 LIN
17 0 NAV

# Extension specification for increasing labels:
# id inc labelstring
extension LABELINC 4
1 1 LIN
2 1 SLC
3 2 LIN
4 1 REP

# Sequence Shapes
[SHAPES]

shape_id 1
num_samples 292
0.0814723686
0.0905791937
0.0126986816
0.0913375856
0.0632359246
0.0097540405
0.0278498219
0.0546881519
0.0957506835
0.0964888535
0.0157613082
0.0970592782
0.0957166948
0.0485375649
0.0800280469
0.0141886339
0.0421761283
0.0915735525
0.079220733
0.0959492426
0.0655740699
0.00357116786
0.0849129306
0.0933993248
0.0678735155
0.0757740131
0.0743132468
0.039222702
0.065547789
0.0171186688
0.0706046088
0.00318328464
0.0276922985
0.00461713906
0.00971317812
0.0823457828
0.0694828623
0.031709948
0.0950222049
0.00344460805
0.043874436
0.0381558457
0.0765516788
0.0795199901
0.0186872605
0.0489764396
0.0445586201
0.064631301
0.0709364831
0.0754686682
0.0276025077
0.0679702677
0.0655098004
0.0162611735
0.0118997682
0.0498364052
0.0959743959
0.0340385727
0.0585267751
0.0223811939
0.0751267059
0.0255095115
0.0505957052
0.0699076723
0.0890903253
0.0959291425
0.054721553
0.0138624443
0.0149294006
0.0257508254
0.0840717256
0.0254282179
0.0814284826
0.0243524969
0.0929263623
0.0349983766
0.019659525
0.0251083858
0.0616044676
0.0473288849
0.0351659507
0.0830828628
0.0585264091
0.0549723608
0.0917193664
0.0285839019
0.0757200229
0.0753729094
0.0380445847
0.0567821641
0.00758542896
0.00539501187
0.0530797553
0.077916723
0.0934010684
0.0129906208
0.0568823661
0.0469390641
0.00119020695
0.0337122644
0.0162182308
0.0794284541
0.0311215042
0.0528533136
0.0165648729
0.0601981941
0.0262971285
0.0654079098
0.0689214503
0.0748151593
0.0450541599
0.0083821378
0.0228976969
0.0913337362
0.0152378019
0.0825816977
0.0538342435
0.0996134717
0.00781755288
0.044267827
0.010665277
0.0961898081
0.000463422413
0.0774910465
0.0817303221
0.0868694705
0.00844358455
0.0399782649
0.0259870403
0.080006848
0.0431413827
0.0910647594
0.0181847028
0.0263802917
0.014553898
0.0136068559
0.0869292208
0.0579704587
0.0549860202
0.0144954798
0.0853031118
0.0622055131
0.0350952381
0.051324954
0.0401808034
0.00759666917
0.0239916154
0.0123318935
0.0183907788
0.0239952526
0.0417267069
0.00496544303
0.090271611
0.094478719
0.0490864092
0.0489252638
0.033771941
0.0900053846
0.0369246781
0.0111202755
0.0780252068
0.0389738837
0.0241691286
0.0403912146
0.00964545252
0.0131973293
0.0942050591
0.095613454
0.0575208595
0.00597795429
0.0234779913
0.0353158571
0.082119404
0.00154034377
0.00430238017
0.0168990029
0.0649115475
0.0731722386
0.0647745963
0.0450923706
0.0547008892
0.0296320806
0.0744692807
0.0188955015
0.0686775433
0.0183511156
0.0368484596
0.0625618561
0.0780227435
0.00811257689
0.0929385971
0.0775712679
0.0486791632
0.0435858589
0.0446783749
0.0306349472
0.0508508655
0.0510771564
0.0817627708
0.0794831417
0.064431813
0.0378609383
0.0811580458
0.0532825589
0.0350727104
0.0939001562
0.0875942811
0.0550156343
0.0622475086
0.0587044705
0.0207742293
0.030124633
0.0470923349
0.023048816
0.0844308793
0.019476429
0.0225921781
0.0170708047
0.0227664298
0.0435698684
0.0311102287
0.0923379642
0.0430207391
0.018481632
0.0904880969
0.0979748378
0.0438869973
0.0111119223
0.0258064696
0.0408719846
0.0594896074
0.0262211748
0.0602843089
0.071121578
0.0221746734
0.0117417651
0.0296675873
0.0318778302
0.042416676
0.0507858285
0.00855157971
0.0262482235
0.0801014623
0.00292202776
0.0928854139
0.0730330863
0.0488608974
0.0578525061
0.023728358
0.0458848828
0.0963088539
0.0546805719
0.0521135831
0.0231594387
0.0488897744
0.0624060088
0.0679135541
0.0395515216
0.0367436649
0.0987982003
0.00377388662
0.0885168008
0.0913286828
0.0796183874
0.00987122787
0.0261871184
0.033535684
0.0679727951
0.0136553137
0.0721227499
0.0106761862
0.0653757349
0.0494173937
0.0779051723
0.0715037078
0.0903720561
0.0890922504
0.0334163053
0.0698745832
0.0197809827
0.00305409463
0.074407426
0.0500022436
0.0479922141
0.0904722238
0.0609866648
0.061766639
0.0859442306
0.0805489425
0.0576721516
0.0182922469
0.0239932011

shape_id 2
num_samples 8000
0.00011671692
0.000117246598
0.000117778547
0.000118312775
0.000118849292
0.000119388107
0.000119929229
0.000120472667
0.00012101843
0.000121566528
0.00012211697
0.000122669766
0.000123224925
0.000123782455
0.000124342368
0.000124904672
0.000125469377
0.000126036492
0.000126606027
0.000127177991
0.000127752395
0.000128329248
0.00012890856
0.00012949034
0.000130074599
0.000130661345
0.00013125059
0.000131842343
0.000132436615
0.000133033414
0.000133632751
0.000134234636
0.000134839079
0.000135446091
0.000136055681
0.000136667861
0.000137282639
0.000137900026
0.000138520034
0.000139142671
0.000139767949
0.000140395877
0.000141026467
0.000141659729
0.000142295674
0.000142934311
0.000143575652
0.000144219708
0.000144866489
0.000145516005
0.000146168268
0.000146823289
0.000147481078
0.000148141646
0.000148805005
0.000149471164
0.000150140136
0.000150811931
0.000151486561
0.000152164036
0.000152844368
0.000153527567
0.000154213646
0.000154902616
0.000155594487
0.000156289272
0.000156986981
0.000157687627
0.00015839122
0.000159097773
0.000159807296
0.000160519802
0.000161235302
0.000161953808
0.000162675332
0.000163399885
0.000164127479
0.000164858127
0.000165591839
0.000166328629
0.000167068508
0.000167811488
0.000168557582
0.000169306801
0.000170059157
0.000170814664
0.000171573332
0.000172335175
0.000173100205
0.000173868435
0.000174639875
0.00017541454
0.000176192442
0.000176973594
0.000177758007
0.000178545694
0.00017933667
0.000180130945
0.000180928533
0.000181729447
0.0001825337
0.000183341305
0.000184152274
0.000184966621
0.000185784359
0.0001866055
0.000187430059
0.000188258048
0.000189089481
0.00018992437
0.00019076273
0.000191604574
0.000192449915
0.000193298766
0.000194151142
0.000195007056
0.000195866521
0.000196729551
0.000197596161
0.000198466363
0.000199340172
0.000200217601
0.000201098665
0.000201983377
0.000202871752
0.000203763803
0.000204659545
0.000205558992
0.000206462158
0.000207369058
0.000208279705
0.000209194114
0.000210112301
0.000211034278
0.000211960061
0.000212889664
0.000213823102
0.00021476039
0.000215701542
0.000216646573
0.000217595498
0.000218548332
0.00021950509
0.000220465787
0.000221430438
0.000222399058
0.000223371661
0.000224348265
0.000225328883
0.000226313531
0.000227302224
0.000228294978
0.000229291809
0.000230292731
0.000231297761
0.000232306914
0.000233320205
0.000234337651
0.000235359268
0.00023638507
0.000237415075
0.000238449298
0.000239487755
0.000240530462
0.000241577435
0.000242628691
0.000243684245
0.000244744115
0.000245808316
0.000246876865
0.000247949779
0.000249027073
0.000250108764
0.00025119487
0.000252285407
0.000253380391
0.000254479839
0.000255583769
0.000256692197
0.00025780514
0.000258922615
0.00026004464
0.000261171231
0.000262302406
0.000263438182
0.000264578576
0.000265723606
0.000266873289
0.000268027644
0.000269186686
0.000270350434
0.000271518906
0.00027269212
0.000273870093
0.000275052843
0.000276240388
0.000277432746
0.000278629935
0.000279831974
0.00028103888
0.000282250672
0.000283467369
0.000284688987
0.000285915547
0.000287147065
0.000288383562
0.000289625056
0.000290871565
0.000292123107
0.000293379703
0.00029464137
0.000295908129
0.000297179997
0.000298456993
0.000299739138
0.00030102645
0.000302318948
0.000303616652
0.000304919581
0.000306227754
0.000307541192
0.000308859914
0.000310183939
0.000311513287
0.000312847978
0.000314188031
0.000315533468
0.000316884307
0.000318240569
0.000319602274
0.000320969442
0.000322342094
0.000323720249
0.000325103928
0.000326493152
0.000327887941
0.000329288316
0.000330694297
0.000332105906
0.000333523162
0.000334946087
0.000336374702
0.000337809028
0.000339249086
0.000340694897
0.000342146483
0.000343603864
0.000345067062
0.000346536098
0.000348010995
0.000349491773
0.000350978455
0.000352471061
0.000353969614
0.000355474136
0.000356984649
0.000358501175
0.000360023735
0.000361552352
0.000363087048
0.000364627846
0.000366174768
0.000367727836
0.000369287073
0.000370852502
0.000372424145
0.000374002025
0.000375586165
0.000377176588
0.000378773316
0.000380376374
0.000381985783
0.000383601568
0.000385223751
0.000386852356
0.000388487407
0.000390128926
0.000391776938
0.000393431466
0.000395092534
0.000396760165
0.000398434385
0.000400115216
0.000401802683
0.00040349681
0.000405197621
0.000406905141
0.000408619393
0.000410340403
0.000412068195
0.000413802794
0.000415544223
0.000417292509
0.000419047676
0.000420809748
0.000422578752
0.000424354712
0.000426137653
0.0004279276
0.00042972458
0.000431528616
0.000433339736
0.000435157964
0.000436983327
0.000438815849
0.000440655558
0.000442502478
0.000444356636
0.000446218058
0.000448086771
0.0004499628
0.000451846171
0.000453736912
0.000455635049
0.000457540609
0.000459453617
0.000461374102
0.000463302089
0.000465237607
0.000467180681
0.00046913134
0.00047108961
0.000473055518
0.000475029093
0.000477010361
0.000478999351
0.000480996089
0.000483000604
0.000485012924
0.000487033076
0.000489061088
0.000491096989
0.000493140807
0.00049519257
0.000497252307
0.000499320045
0.000501395815
0.000503479643
0.00050557156
0.000507671594
0.000509779773
0.000511896128
0.000514020686
0.000516153478
0.000518294532
0.000520443879
0.000522601547
0.000524767566
0.000526941966
0.000529124776
0.000531316027
0.000533515749
0.000535723971
0.000537940724
0.000540166038
0.000542399943
0.00054464247
0.00054689365
0.000549153512
0.000551422088
0.00055369941
0.000555985506
0.000558280409
0.000560584151
0.000562896761
0.000565218271
0.000567548713
0.000569888119
0.00057223652
0.000574593947
0.000576960433
0.00057933601
0.000581720709
0.000584114562
0.000586517603
0.000588929863
0.000591351374
0.00059378217
0.000596222283
0.000598671745
0.00060113059
0.00060359885
0.000606076559
0.00060856375
0.000611060455
0.000613566709
0.000616082544
0.000618607995
0.000621143095
0.000623687878
0.000626242378
0.000628806628
0.000631380663
0.000633964518
0.000636558225
0.000639161821
0.000641775339
0.000644398813
0.00064703228
0.000649675773
0.000652329328
0.000654992979
0.000657666762
0.000660350713
0.000663044866
0.000665749256
0.000668463921
0.000671188895
0.000673924214
0.000676669914
0.000679426032
0.000682192603
0.000684969663
0.00068775725
0.000690555399
0.000693364148
0.000696183533
0.00069901359
0.000701854357
0.000704705871
0.000707568169
0.000710441289
0.000713325267
0.000716220142
0.000719125951
0.000722042731
0.000724970521
0.000727909359
0.000730859282
0.000733820329
0.000736792539
0.00073977595
0.0007427706
0.000745776528
0.000748793772
0.000751822373
0.000754862369
0.000757913798
0.000760976702
0.000764051117
0.000767137086
0.000770234646
0.000773343838
0.000776464701
0.000779597277
0.000782741604
0.000785897723
0.000789065675
0.000792245499
0.000795437238
0.00079864093
0.000801856618
0.000805084342
0.000808324144
0.000811576064
0.000814840144
0.000818116426
0.000821404951
0.00082470576
0.000828018897
0.000831344402
0.000834682318
0.000838032687
0.000841395552
0.000844770954
0.000848158938
0.000851559545
0.000854972818
0.0008583988
0.000861837535
0.000865289066
0.000868753436
0.000872230689
0.000875720869
0.000879224018
0.000882740182
0.000886269404
0.000889811728
0.000893367199
0.000896935862
0.00090051776
0.000904112939
0.000907721443
0.000911343318
0.000914978608
0.000918627359
0.000922289616
0.000925965425
0.000929654832
0.000933357881
0.00093707462
0.000940805094
0.00094454935
0.000948307433
0.000952079391
0.00095586527
0.000959665116
0.000963478977
0.0009673069
0.000971148931
0.000975005119
0.00097887551
0.000982760152
0.000986659094
0.000990572382
0.000994500065
0.000998442191
0.00100239881
0.00100636997
0.00101035571
0.00101435609
0.00101837116
0.00102240097
0.00102644555
0.00103050498
0.00103457928
0.00103866852
0.00104277274
0.00104689199
0.00105102632
0.00105517579
0.00105934043
0.00106352032
0.00106771548
0.00107192598
0.00107615187
0.00108039319
0.00108465
0.00108892235
0.00109321029
0.00109751387
0.00110183315
0.00110616817
0.00111051899
0.00111488566
0.00111926823
0.00112366676
0.0011280813
0.0011325119
0.00113695861
0.00114142149
0.00114590059
0.00115039596
0.00115490767
0.00115943575
0.00116398027
0.00116854128
0.00117311883
0.00117771298
0.00118232379
0.0011869513
0.00119159557
0.00119625666
0.00120093463
0.00120562952
0.00121034139
0.00121507031
0.00121981632
0.00122457948
0.00122935985
0.00123415748
0.00123897244
0.00124380477
0.00124865453
0.00125352178
0.00125840658
0.00126330899
0.00126822906
0.00127316685
0.00127812241
0.00128309582
0.00128808711
0.00129309636
0.00129812362
0.00130316895
0.00130823241
0.00131331405
0.00131841394
0.00132353214
0.0013286687
0.00133382368
0.00133899715
0.00134418917
0.00134939978
0.00135462907
0.00135987707
0.00136514387
0.00137042951
0.00137573405
0.00138105757
0.00138640012
0.00139176175
0.00139714255
0.00140254255
0.00140796183
0.00141340046
0.00141885848
0.00142433597
0.00142983298
0.00143534959
0.00144088585
0.00144644182
0.00145201757
0.00145761317
0.00146322867
0.00146886414
0.00147451965
0.00148019526
0.00148589103
0.00149160703
0.00149734332
0.00150309998
0.00150887705
0.00151467461
0.00152049273
0.00152633147
0.00153219089
0.00153807107
0.00154397207
0.00154989395
0.00155583678
0.00156180063
0.00156778556
0.00157379165
0.00157981896
0.00158586756
0.00159193751
0.00159802889
0.00160414175
0.00161027618
0.00161643224
0.00162260999
0.00162880951
0.00163503086
0.00164127412
0.00164753936
0.00165382663
0.00166013602
0.0016664676
0.00167282143
0.00167919758
0.00168559613
0.00169201714
0.00169846069
0.00170492685
0.00171141568
0.00171792727
0.00172446168
0.00173101899
0.00173759926
0.00174420257
0.001750829
0.0017574786
0.00176415147
0.00177084767
0.00177756727
0.00178431035
0.00179107698
0.00179786723
0.00180468119
0.00181151891
0.00181838049
0.00182526599
0.00183217549
0.00183910906
0.00184606678
0.00185304873
0.00186005497
0.0018670856
0.00187414067
0.00188122027
0.00188832448
0.00189545337
0.00190260702
0.0019097855
0.0019169889
0.00192421729
0.00193147075
0.00193874936
0.00194605319
0.00195338233
0.00196073684
