# Pulseq sequence file
# Created by MATLAB mr toolbox

[VERSION]
major 1
minor 5
revision 0

[DEFINITIONS]
AccelerationFactorPE 2 
AdcRasterTime 1e-07 
BlockDurationRaster 1e-05 
FOV 0.22 0.22 0.0045 
FirstFourierLine 1 
FirstRefLine 22 
GradientRasterTime 1e-05 
Name epi 
PhaseEncodingLine_DIFF 146 
PhaseResolution 1 
RadiofrequencyRasterTime 1e-06 
ReadoutOversamplingFactor 2 
ReceiverGainHigh 1 
RefLinesPE 30 
SliceGap 0 
SlicePositions -0.0015 0.0015 0 
SliceThickness 0.0015 
TargetGriddedSamples 292 
TotalDuration 15.14222 
TrapezoidGriddingParameters 0.00023 0.00023 0.00023 5.3e-05 0.000584 
kSpaceCenterLine 37 

# Format of blocks:
# NUM DUR RF  GX  GY  GZ  ADC  EXT
[BLOCKS]
   1   0   0   0   0   0  0  3
   2  65   0   0   0   0  1  4
   3   0   0   0   0   0  0  5
   4 350   0   1   1   1  0  0
   5 1163   1   2   2   2  0  0
   6 375   2   0   0   3  0  6
   7 103   0   4   0   5  0  0
   8  69   0   6   0   0  0  0
   9  69   0   7   0   0  0  0
  10  69   0   6   0   0  0  0
  11  46   0   8   0   0  0  0
  12 2731   0   0   0   0  0  0
  13 672   3  10  10   9  0  0
  14 1875   0   0   0   0  0  0
  15 103   0   4  11   0  0  0
  16  69   0   6  12   0  0  0
  17  69   0   7  13   0  0  7
  18  69   0   6  13   0  0  8
  19  69   0   7  13   0  0  7
  20  69   0   6  13   0  0  8
  21  69   0   7  13   0  0  7
  22  69   0   6  13   0  0  8
  23  69   0   7  13   0  0  7
  24  69   0   6  13   0  0  8
  25  69   0   7  13   0  0  7
  26  69   0   6  13   0  0  8
  27  69   0   7  13   0  0  7
  28  69   0   6  13   0  0  8
  29  69   0   7  13   0  0  7
  30  69   0   6  13   0  0  8
  31  69   0   7  13   0  0  7
  32  69   0   6  13   0  0  8
  33  69   0   7  13   0  0  7
  34  69   0   6  13   0  0  8
  35  69   0   7  13   0  0  7
  36  69   0   6  13   0  0  8
  37  69   0   7  13   0  0  7
  38  69   0   6  13   0  0  8
  39  69   0   7  13   0  0  7
  40  69   0   6  13   0  0  8
  41  69   0   7  13   0  0  7
  42  69   0   6  13   0  0  8
  43  69   0   7  13   0  0  7
  44  69   0   6  13   0  0  8
  45  69   0   7  13   0  0  7
  46  69   0   6  13   0  0  8
  47  69   0   7  13   0  0  7
  48  69   0   6  13   0  0  8
  49  69   0   7  13   0  0  7
  50  69   0   6  13   0  0  8
  51  69   0   7  13   0  0  7
  52  69   0   6  13   0  0  8
  53  69   0   7  14   0  0  0
  54  60   0  16  15   0  0  0
  55 6005   0   0   0   0  0  0
  56   0   0   0   0   0  0  9
  57 350   0   1   1   1  0  0
  58 1163   1   2   2   2  0  0
  59 375   2   0   0   3  0  6
  60 103   0   4   0   5  0  0
  61  69   0   6   0   0  0  0
  62  69   0   7   0   0  0  0
  63  69   0   6   0   0  0  0
  64  46   0   8   0   0  0  0
  65 2731   0   0   0   0  0  0
  66 672   3  10  10   9  0  0
  67 1875   0   0   0   0  0  0
  68 103   0   4  11   0  0  0
  69  69   0   6  12   0  0  0
  70  69   0   7  13   0  0  7
  71  69   0   6  13   0  0  8
  72  69   0   7  13   0  0  7
  73  69   0   6  13   0  0  8
  74  69   0   7  13   0  0  7
  75  69   0   6  13   0  0  8
  76  69   0   7  13   0  0  7
  77  69   0   6  13   0  0  8
  78  69   0   7  13   0  0  7
  79  69   0   6  13   0  0  8
  80  69   0   7  13   0  0  7
  81  69   0   6  13   0  0  8
  82  69   0   7  13   0  0  7
  83  69   0   6  13   0  0  8
  84  69   0   7  13   0  0  7
  85  69   0   6  13   0  0  8
  86  69   0   7  13   0  0  7
  87  69   0   6  13   0  0  8
  88  69   0   7  13   0  0  7
  89  69   0   6  13   0  0  8
  90  69   0   7  13   0  0  7
  91  69   0   6  13   0  0  8
  92  69   0   7  13   0  0  7
  93  69   0   6  13   0  0  8
  94  69   0   7  13   0  0  7
  95  69   0   6  13   0  0  8
  96  69   0   7  13   0  0  7
  97  69   0   6  13   0  0  8
  98  69   0   7  13   0  0  7
  99  69   0   6  13   0  0  8
 100  69   0   7  13   0  0  7
 101  69   0   6  13   0  0  8
 102  69   0   7  13   0  0  7
 103  69   0   6  13   0  0  8
 104  69   0   7  13   0  0  7
 105  69   0   6  13   0  0  8
 106  69   0   7  14   0  0  0
 107  60   0  16  15   0  0  0
 108 6005   0   0   0   0  0  0
 109   0   0   0   0   0  0  9
 110 350   0   1   1   1  0  0
 111 1163   1   2   2   2  0  0
 112 375   2   0   0   3  0  6
 113 103   0   4   0   5  0  0
 114  69   0   6   0   0  0  0
 115  69   0   7   0   0  0  0
 116  69   0   6   0   0  0  0
 117  46   0   8   0   0  0  0
 118 2731   0   0   0   0  0  0
 119 672   3  10  10   9  0  0
 120 1875   0   0   0   0  0  0
 121 103   0   4  11   0  0  0
 122  69   0   6  12   0  0  0
 123  69   0   7  13   0  0  7
 124  69   0   6  13   0  0  8
 125  69   0   7  13   0  0  7
 126  69   0   6  13   0  0  8
 127  69   0   7  13   0  0  7
 128  69   0   6  13   0  0  8
 129  69   0   7  13   0  0  7
 130  69   0   6  13   0  0  8
 131  69   0   7  13   0  0  7
 132  69   0   6  13   0  0  8
 133  69   0   7  13   0  0  7
 134  69   0   6  13   0  0  8
 135  69   0   7  13   0  0  7
 136  69   0   6  13   0  0  8
 137  69   0   7  13   0  0  7
 138  69   0   6  13   0  0  8
 139  69   0   7  13   0  0  7
 140  69   0   6  13   0  0  8
 141  69   0   7  13   0  0  7
 142  69   0   6  13   0  0  8
 143  69   0   7  13   0  0  7
 144  69   0   6  13   0  0  8
 145  69   0   7  13   0  0  7
 146  69   0   6  13   0  0  8
 147  69   0   7  13   0  0  7
 148  69   0   6  13   0  0  8
 149  69   0   7  13   0  0  7
 150  69   0   6  13   0  0  8
 151  69   0   7  13   0  0  7
 152  69   0   6  13   0  0  8
 153  69   0   7  13   0  0  7
 154  69   0   6  13   0  0  8
 155  69   0   7  13   0  0  7
 156  69   0   6  13   0  0  8
 157  69   0   7  13   0  0  7
 158  69   0   6  13   0  0  8
 159  69   0   7  14   0  0  0
 160  60   0  16  15   0  0  0
 161 6005   0   0   0   0  0  0
 162   0   0   0   0   0  0  9
 163   0   0   0   0   0  0 10
 164 350   0   1   1   1  0  0
 165 1163   1   2   2   2  0  0
 166 375   2   0   0   3  0  6
 167 103   0   4   0   5  0 12
 168   0   0   0   0   0  0 13
 169   0   0   0   0   0  0 15
 170  69   0   6   0   0  1  0
 171   0   0   0   0   0  0 17
 172  69   0   7   0   0  1  0
 173   0   0   0   0   0  0 18
 174  69   0   6   0   0  1  0
 175  46   0   8   0   0  0 12
 176 2731   0   0   0   0  0  0
 177 672   3  10  10   9  0  0
 178 1875   0   0   0   0  0  0
 179   0   0   0   0   0  0 19
 180 103   0   4  11   0  0 22
 181  69   0   6  12   0  0 25
 182  69   0   7  13   0  0 27
 183  69   0   6  13   0  0 25
 184  69   0   7  13   0  1 27
 185  69   0   6  13   0  1 25
 186  69   0   7  13   0  1 27
 187  69   0   6  13   0  1 25
 188  69   0   7  13   0  1 27
 189  69   0   6  13   0  1 25
 190  69   0   7  13   0  1 27
 191  69   0   6  13   0  1 25
 192  69   0   7  13   0  1 27
 193  69   0   6  13   0  1 25
 194  69   0   7  13   0  1 27
 195  69   0   6  13   0  1 25
 196  69   0   7  13   0  1 27
 197  69   0   6  13   0  1 25
 198  69   0   7  13   0  1 27
 199  69   0   6  13   0  1 25
 200  69   0   7  13   0  1 27
 201  69   0   6  13   0  1 25
 202  69   0   7  13   0  1 27
 203  69   0   6  13   0  1 25
 204  69   0   7  13   0  1 27
 205  69   0   6  13   0  1 25
 206  69   0   7  13   0  1 27
 207  69   0   6  13   0  1 25
 208  69   0   7  13   0  1 27
 209  69   0   6  13   0  1 25
 210  69   0   7  13   0  1 27
 211  69   0   6  13   0  1 25
 212  69   0   7  13   0  1 27
 213  69   0   6  13   0  1 25
 214  69   0   7  13   0  0 27
 215  69   0   6  13   0  0 25
 216  69   0   7  13   0  0 27
 217  69   0   6  13   0  0 25
 218  69   0   7  14   0  0 27
 219  60   0  16  15   0  0  0
 220 6005   0   0   0   0  0  0
 221   0   0   0   0   0  0  9
 222 350   0   1   1   1  0  0
 223 1163   1   2   2   2  0  0
 224 375   4   0   0   3  0  6
 225 103   0   4   0   5  0 12
 226   0   0   0   0   0  0 13
 227   0   0   0   0   0  0 15
 228  69   0   6   0   0  1  0
 229   0   0   0   0   0  0 17
 230  69   0   7   0   0  1  0
 231   0   0   0   0   0  0 18
 232  69   0   6   0   0  1  0
 233  46   0   8   0   0  0 12
 234 2731   0   0   0   0  0  0
 235 672   5  10  10   9  0  0
 236 1875   0   0   0   0  0  0
 237   0   0   0   0   0  0 19
 238 103   0   4  11   0  0 22
 239  69   0   6  12   0  0 25
 240  69   0   7  13   0  0 27
 241  69   0   6  13   0  0 25
 242  69   0   7  13   0  1 27
 243  69   0   6  13   0  1 25
 244  69   0   7  13   0  1 27
 245  69   0   6  13   0  1 25
 246  69   0   7  13   0  1 27
 247  69   0   6  13   0  1 25
 248  69   0   7  13   0  1 27
 249  69   0   6  13   0  1 25
 250  69   0   7  13   0  1 27
 251  69   0   6  13   0  1 25
 252  69   0   7  13   0  1 27
 253  69   0   6  13   0  1 25
 254  69   0   7  13   0  1 27
 255  69   0   6  13   0  1 25
 256  69   0   7  13   0  1 27
 257  69   0   6  13   0  1 25
 258  69   0   7  13   0  1 27
 259  69   0   6  13   0  1 25
 260  69   0   7  13   0  1 27
 261  69   0   6  13   0  1 25
 262  69   0   7  13   0  1 27
 263  69   0   6  13   0  1 25
 264  69   0   7  13   0  1 27
 265  69   0   6  13   0  1 25
 266  69   0   7  13   0  1 27
 267  69   0   6  13   0  1 25
 268  69   0   7  13   0  1 27
 269  69   0   6  13   0  1 25
 270  69   0   7  13   0  1 27
 271  69   0   6  13   0  1 25
 272  69   0   7  13   0  0 27
 273  69   0   6  13   0  0 25
 274  69   0   7  13   0  0 27
 275  69   0   6  13   0  0 25
 276  69   0   7  14   0  0 27
 277  60   0  16  15   0  0  0
 278 6005   0   0   0   0  0  0
 279   0   0   0   0   0  0  9
 280 350   0   1   1   1  0  0
 281 1163   1   2   2   2  0  0
 282 375   6   0   0   3  0  6
 283 103   0   4   0   5  0 12
 284   0   0   0   0   0  0 13
 285   0   0   0   0   0  0 15
 286  69   0   6   0   0  1  0
 287   0   0   0   0   0  0 17
 288  69   0   7   0   0  1  0
 289   0   0   0   0   0  0 18
 290  69   0   6   0   0  1  0
 291  46   0   8   0   0  0 12
 292 2731   0   0   0   0  0  0
 293 672   7  10  10   9  0  0
 294 1875   0   0   0   0  0  0
 295   0   0   0   0   0  0 19
 296 103   0   4  11   0  0 22
 297  69   0   6  12   0  0 25
 298  69   0   7  13   0  0 27
 299  69   0   6  13   0  0 25
[RF]
1      129.712 2 3 0 4000 100 -3.45 0.086708 0 0 s
2       292.11 4 5 6 1725 150 0 0 -831.053 9.00736 e
3      845.482 7 8 9 2880.75 380 0 0 764.895 -15.4156 r
4       292.11 4 5 6 1725 150 0 0 831.053 -9.00736 e
5      845.482 7 8 9 2880.75 380 0 0 -764.895 12.274 r
6       292.11 4 5 6 1725 150 0 0 0 -0 e
7      845.482 7 8 9 2880.75 380 0 0 -0 -1.5708 r

# Format of arbitrary gradients:
#   time_shape_id of 0 means default timing (stepping with grad_raster starting at 1/2 of grad_raster)
# id amplitude first last amp_shape_id time_shape_id delay
# ..      Hz/m  Hz/m Hz/m        ..         ..          us
[GRADIENTS]
9 -1.29258e+06           -0           -0 10 11 0
10 -1.29258e+06           -0           -0 12 11 0
12      -113636            0      -113636 13 14 660
13      -113636      -113636      -113636 15 16 0
14      -113636      -113636            0 17 18 0
17 -4.07841e+06            0            0 19 0 0
18  4.93684e+06           -0           -0 19 0 0
19 -4.90528e+06            0            0 19 0 0
20 -4.04588e+06            0            0 20 0 0
21  4.89746e+06           -0           -0 20 0 0
22 -4.86615e+06            0            0 20 0 0
24      -181818            0      -181818 13 21 650
25      -181818      -181818      -181818 15 22 0
26      -181818      -181818            0 17 23 0
29  6.96648e+06           -0           -0 19 0 0
30   1.6831e+06           -0           -0 19 0 0
31  3.70174e+06           -0           -0 19 0 0
32  6.91092e+06           -0           -0 20 0 0
33  1.66967e+06           -0           -0 20 0 0
34  3.67221e+06           -0           -0 20 0 0
35  4.47125e+06           -0           -0 19 0 0
36 -2.17557e+06            0            0 19 0 0
37  6.35157e+06           -0           -0 19 0 0
38  4.43558e+06           -0           -0 20 0 0
39 -2.15822e+06            0            0 20 0 0
40  6.30091e+06           -0           -0 20 0 0
41 -1.00288e+06            0            0 19 0 0
42  5.62527e+06           -0           -0 19 0 0
43  5.69369e+06           -0           -0 19 0 0
44      -994878            0            0 20 0 0
45   5.5804e+06           -0           -0 20 0 0
46  5.64828e+06           -0           -0 20 0 0
47 -1.53169e+06            0            0 19 0 0
48  1.19954e+06           -0           -0 19 0 0
49  7.82832e+06           -0           -0 19 0 0
50 -1.51947e+06            0            0 20 0 0
51  1.18997e+06           -0           -0 20 0 0
52  7.76588e+06           -0           -0 20 0 0
53 -1.16418e+06            0            0 19 0 0
54  7.88419e+06           -0           -0 19 0 0
55  -1.2457e+06            0            0 19 0 0
56  -1.1549e+06            0            0 20 0 0
57  7.82131e+06           -0           -0 20 0 0
58 -1.23577e+06            0            0 20 0 0
59 -3.52485e+06            0            0 19 0 0
60 -1.03151e+06            0            0 19 0 0
61  7.18185e+06           -0           -0 19 0 0
62 -3.49674e+06            0            0 20 0 0
63 -1.02328e+06            0            0 20 0 0
64  7.12457e+06           -0           -0 20 0 0
65  6.29619e+06           -0           -0 19 0 0
66  5.01172e+06           -0           -0 19 0 0
67      -555222            0            0 19 0 0
68  6.24597e+06           -0           -0 20 0 0
69  4.97174e+06           -0           -0 20 0 0
70      -550793            0            0 20 0 0
71  7.91073e+06           -0           -0 19 0 0
72      -149705            0            0 19 0 0
73 -1.57018e+06            0            0 19 0 0
74  7.84763e+06           -0           -0 20 0 0
75      -148511            0            0 20 0 0
76 -1.55766e+06            0            0 20 0 0
77  2.73681e+06           -0           -0 19 0 0
78  3.48834e+06           -0           -0 19 0 0
79 -6.73861e+06            0            0 19 0 0
80  2.71498e+06           -0           -0 20 0 0
81  3.46052e+06           -0           -0 20 0 0
82 -6.68486e+06            0            0 20 0 0
83 -2.19018e+06            0            0 19 0 0
84  7.68359e+06           -0           -0 19 0 0
85  1.11043e+06           -0           -0 19 0 0
86 -2.17271e+06            0            0 20 0 0
87  7.62231e+06           -0           -0 20 0 0
88  1.10157e+06           -0           -0 20 0 0
89     -20480.7            0            0 19 0 0
90  3.43998e+06           -0           -0 19 0 0
91  7.29614e+06           -0           -0 19 0 0
92     -20317.3            0            0 20 0 0
93  3.41255e+06           -0           -0 20 0 0
94  7.23794e+06           -0           -0 20 0 0
95 -7.89702e+06            0            0 19 0 0
96  1.46836e+06           -0           -0 19 0 0
97      -740629            0            0 19 0 0
98 -7.83403e+06            0            0 20 0 0
99  1.45665e+06           -0           -0 20 0 0
100      -734722            0            0 20 0 0
101  2.94611e+06           -0           -0 19 0 0
102  7.17356e+06           -0           -0 19 0 0
103  2.21991e+06           -0           -0 19 0 0
104  2.92262e+06           -0           -0 20 0 0
105  7.11634e+06           -0           -0 20 0 0
106   2.2022e+06           -0           -0 20 0 0
107 -3.97954e+06            0            0 19 0 0
108  1.51839e+06           -0           -0 19 0 0
109   6.8502e+06           -0           -0 19 0 0
110  -3.9478e+06            0            0 20 0 0
111  1.50628e+06           -0           -0 20 0 0
112  6.79557e+06           -0           -0 20 0 0
113  1.02145e+06           -0           -0 19 0 0
114  6.90832e+06           -0           -0 19 0 0
115  4.03724e+06           -0           -0 19 0 0
116  1.01331e+06           -0           -0 20 0 0
117  6.85322e+06           -0           -0 20 0 0
118  4.00504e+06           -0           -0 20 0 0
119  7.04999e+06           -0           -0 19 0 0
120  3.60014e+06           -0           -0 19 0 0
121  1.55054e+06           -0           -0 19 0 0
122  6.99376e+06           -0           -0 20 0 0
123  3.57142e+06           -0           -0 20 0 0
124  1.53817e+06           -0           -0 20 0 0
125  2.86246e+06           -0           -0 19 0 0
126  3.10275e+06           -0           -0 19 0 0
127  6.87363e+06           -0           -0 19 0 0
128  2.83963e+06           -0           -0 20 0 0
129    3.078e+06           -0           -0 20 0 0
130  6.81881e+06           -0           -0 20 0 0
131  3.95843e+06           -0           -0 19 0 0
132  7.02251e+06           -0           -0 19 0 0
133      -287698            0            0 19 0 0
134  3.92686e+06           -0           -0 20 0 0
135   6.9665e+06           -0           -0 20 0 0
136      -285403            0            0 20 0 0
137 -5.28524e+06            0            0 19 0 0
138  5.50582e+06           -0           -0 19 0 0
139 -2.61146e+06            0            0 19 0 0
140 -5.24309e+06            0            0 20 0 0
141   5.4619e+06           -0           -0 20 0 0
142 -2.59063e+06            0            0 20 0 0
143  3.76906e+06           -0           -0 19 0 0
144       424093           -0           -0 19 0 0
145  7.11912e+06           -0           -0 19 0 0
146  3.73899e+06           -0           -0 20 0 0
147       420711           -0           -0 20 0 0
148  7.06234e+06           -0           -0 20 0 0
149      31289.7           -0           -0 19 0 0
150  7.27076e+06           -0           -0 19 0 0
151 -3.49321e+06            0            0 19 0 0
152      31040.2           -0           -0 20 0 0
153  7.21277e+06           -0           -0 20 0 0
154 -3.46535e+06            0            0 20 0 0
155  -2.8146e+06            0            0 19 0 0
156  6.82342e+06           -0           -0 19 0 0
157 -3.25369e+06            0            0 19 0 0
158 -2.79215e+06            0            0 20 0 0
159    6.769e+06           -0           -0 20 0 0
160 -3.22774e+06            0            0 20 0 0
161       133056           -0           -0 19 0 0
162  3.87776e+06           -0           -0 19 0 0
163 -7.07197e+06            0            0 19 0 0
164       131995           -0           -0 20 0 0
165  3.84683e+06           -0           -0 20 0 0
166 -7.01557e+06            0            0 20 0 0
167  7.54716e+06           -0           -0 19 0 0
168  2.59621e+06           -0           -0 19 0 0
169 -1.16948e+06            0            0 19 0 0
170  7.48696e+06           -0           -0 20 0 0
171   2.5755e+06           -0           -0 20 0 0
172 -1.16015e+06            0            0 20 0 0
173 -7.33656e+06            0            0 19 0 0
174  3.12338e+06           -0           -0 19 0 0
175  1.21939e+06           -0           -0 19 0 0
176 -7.27804e+06            0            0 20 0 0
177  3.09847e+06           -0           -0 20 0 0
178  1.20966e+06           -0           -0 20 0 0
179 -5.84125e+06            0            0 19 0 0
180       190538           -0           -0 19 0 0
181  5.55977e+06           -0           -0 19 0 0
182 -5.79466e+06            0            0 20 0 0
183       189018           -0           -0 20 0 0
184  5.51542e+06           -0           -0 20 0 0

# Format of trapezoid gradients:
# id amplitude rise flat fall delay
# ..      Hz/m   us   us   us    us
[TRAP]
 1  1.02192e+06 500 2500 500   0
 2 -1.02192e+06 500 2500 500 8130
 3       554035 150 3450 150   0
 4  1.46484e+06 230    0 230 570
 5 -1.88163e+06 500   30 500   0
 6 -1.46484e+06 230  230 230   0
 7  1.46484e+06 230  230 230   0
 8  1.46484e+06 230    0 230   0
11      80213.9  10 1010  10   0
15       157025  50  500  50   0
16 -1.12304e+06 300    0 300   0
23       163636  30  970  30   0
27  1.12304e+06 300    0 300   0
28       909091 240  120 240   0

# Format of ADC events:
# id num dwell delay freqPPM phasePPM freq phase phase_id
# ..  ..    ns    us     ppm  rad/MHz   Hz   rad       ..
[ADC]
1 292 2000 53 0 0 0 0 1

# Format of extension lists:
# id type ref next_id
# next_id of 0 terminates the list
# Extension list is followed by extension specifications
[EXTENSIONS]
1 1 1 0
2 1 2 1
3 1 3 2
4 1 4 0
5 1 5 0
6 3 1 0
7 1 6 0
8 1 7 0
9 4 1 0
10 1 2 0
11 1 8 0
12 1 9 11
13 1 10 0
14 1 11 8
15 1 12 14
16 1 12 7
17 1 13 16
18 1 14 14
19 1 15 0
20 1 12 0
21 1 16 20
22 1 17 21
23 4 2 0
24 1 7 23
25 1 11 24
26 1 6 23
27 1 13 26
28 1 9 0
29 1 17 28
30 1 12 1
31 1 17 30
32 4 3 0
33 1 6 32
34 1 13 33
35 1 7 32
36 1 11 35
37 4 4 0

# Extension specification for digital output and input triggers:
# id type channel delay (us) duration (us)
extension TRIGGERS 3
1 1 1 0 100

# Extension specification for setting labels:
# id set labelstring
extension LABELSET 1
1 0 LIN
2 0 SLC
3 0 REP
4 1 NOISE
5 0 NOISE
6 1 REV
7 0 REV
8 1 NAV
9 37 LIN
10 0 REF
11 0 SEG
12 0 AVG
13 1 SEG
14 1 AVG
15 1 REF
16 18 LIN
17 0 NAV

# Extension specification for increasing labels:
# id inc labelstring
extension LABELINC 4
1 1 SLC
2 1 LIN
3 2 LIN
4 1 REP

# Sequence Shapes
[SHAPES]

shape_id 1
num_samples 292
0.0208905742
0.0116332096
0.0646220068
0.010841109
0.0983496924
0.0248344038
0.060635572
0.0816695273
0.0830054213
0.0489039332
0.0760728256
0.0915107935
0.0900974956
0.021423751
0.0547061106
0.0784709481
0.0194441094
0.0746889152
0.0475558224
0.0583258581
0.0260548082
0.00848224596
0.0298132851
0.0917129359
0.0470518193
0.0269467553
0.0762970477
0.0772172105
0.00212996241
0.0879986192
0.0798170184
0.0324165239
0.0669044417
0.0296293863
0.0929952044
0.0281960435
0.0168879971
0.0745166604
0.0477134352
0.0653444541
0.0966575933
0.0313027488
0.00764394578
0.0791415147
0.0365383979
0.0585099389
0.0183336706
0.00769189422
0.0153662767
0.082687599
0.0300956743
0.038388449
0.0650748947
0.0817370524
0.0766266219
0.0374175558
0.0189862478
0.0646501755
0.000360530451
0.0282887905
0.0638600595
0.059207458
0.0325289205
0.0988951251
0.0123235846
0.0735876986
0.015661702
0.0434647411
0.0832243218
0.0359909561
0.00762380475
0.0556925546
0.0273930224
0.0132054679
0.0699654849
0.0485904908
0.0182716251
0.0101214538
0.0201584327
0.0134746011
0.0323789154
0.0950545048
0.0532130561
0.024768571
0.0437276253
0.0669087783
0.0547695711
0.0609054494
0.086313476
0.038069595
0.0748955615
0.0156696798
0.00581238179
0.0339706962
0.0817176415
0.037754767
0.0972604932
0.0605318591
0.0338236166
0.0927983722
0.0898424694
0.0850706461
0.0256791917
0.0285495501
0.077994691
0.0701395228
0.0492511776
0.0967667748
0.0476161494
0.0994905517
0.0490578622
0.0503453396
0.0768772876
0.0388084482
0.045325926
0.0132853968
0.0758506328
0.0565236934
0.0648636599
0.0798058063
0.0220448243
0.0857890771
0.0904728919
0.0292019885
0.0725869758
0.0339445804
0.0272681227
0.017027459
0.0664018226
0.0535851658
0.0829109418
0.0267362081
0.0176155781
0.0431186366
0.0475655038
0.0785220908
0.0130651597
0.00513557327
0.0627506477
0.00290875519
0.013619461
0.0694555599
0.0515678957
0.054258242
0.0808483509
0.079368603
0.0501867087
0.0276632058
0.0119664941
0.088659776
0.0970288991
0.0942526313
0.0638128133
0.0090590152
0.00747081149
0.0182450936
0.0031687662
0.0724936308
0.014415881
0.0635926817
0.0789847559
0.0566253127
0.0377413924
0.0821586116
0.030488083
0.0319373098
0.0784979891
0.0503736437
0.0260996732
0.0732475524
0.0162949965
0.0921075222
0.0222223463
0.00836087173
0.00737015537
0.0769551658
0.0817677027
0.0740425535
0.0758248787
0.096119498
0.0466424962
0.0786996488
0.0422568084
0.0943729958
0.000131439799
0.0981267907
0.0570194182
0.0346470554
0.0557503053
0.0299784703
0.0159072823
0.0665256286
0.0684202783
0.0792409362
0.0348624438
0.0250074733
0.0345003385
0.0328632593
0.0927485533
0.0756072432
0.0288238633
0.0606179876
0.0766029364
0.0846152344
0.0901981192
0.0595707148
0.00685361446
0.0218043375
0.0869408492
0.0414217854
0.0661209152
0.078348484
0.0247886008
0.0554425289
0.0229585395
0.000691276397
0.0766639397
0.00218332495
0.0393103435
0.0252540156
0.0204216921
0.0662279467
0.091474208
0.000690254774
0.07464232
0.0799670794
0.0907798941
0.0974573935
0.0119863491
0.0518969763
0.0821974812
0.0637022799
0.0953910377
0.0946926373
0.0966605245
0.00673441885
0.0437534794
0.0320839943
0.0134052058
0.013458515
0.080594766
0.0524764264
0.0944256971
0.0988340077
0.040989418
0.0371187877
0.0226854092
0.0446030959
0.0266221438
0.0459096394
0.0432905328
0.0259623434
0.0133714508
0.0419228419
0.0506860511
0.0324324555
0.06846888
0.0443093511
0.043566308
0.0793023516
0.081555637
0.0752112654
0.0789255941
0.0501267453
0.0555181923
0.0630749738
0.00979891648
0.0245676182
0.0615725142
0.0304959958
0.0766967603
0.0267229092
0.00395063043
0.0296561778
0.0556364975
0.0969074471
0.0689124711
0.0717881398
0.055902912
0.0533354208
0.0875724003
0.0393098593
0.0458066938
0.0208245205
0.0757273163
0.0546692028
0.0357388193
0.070099779
0.0109222497
0.000661076596
0.059730208
0.0659176067

shape_id 2
num_samples 8000
0.00011671692
0.000117246598
0.000117778547
0.000118312775
0.000118849292
0.000119388107
0.000119929229
0.000120472667
0.00012101843
0.000121566528
0.00012211697
0.000122669766
0.000123224925
0.000123782455
0.000124342368
0.000124904672
0.000125469377
0.000126036492
0.000126606027
0.000127177991
0.000127752395
0.000128329248
0.00012890856
0.00012949034
0.000130074599
0.000130661345
0.00013125059
0.000131842343
0.000132436615
0.000133033414
0.000133632751
0.000134234636
0.000134839079
0.000135446091
0.000136055681
0.000136667861
0.000137282639
0.000137900026
0.000138520034
0.000139142671
0.000139767949
0.000140395877
0.000141026467
0.000141659729
0.000142295674
0.000142934311
0.000143575652
0.000144219708
0.000144866489
0.000145516005
0.000146168268
0.000146823289
0.000147481078
0.000148141646
0.000148805005
0.000149471164
0.000150140136
0.000150811931
0.000151486561
0.000152164036
0.000152844368
0.000153527567
0.000154213646
0.000154902616
0.000155594487
0.000156289272
0.000156986981
0.000157687627
0.00015839122
0.000159097773
0.000159807296
0.000160519802
0.000161235302
0.000161953808
0.000162675332
0.000163399885
0.000164127479
0.000164858127
0.000165591839
0.000166328629
0.000167068508
0.000167811488
0.000168557582
0.000169306801
0.000170059157
0.000170814664
0.000171573332
0.000172335175
0.000173100205
0.000173868435
0.000174639875
0.00017541454
0.000176192442
0.000176973594
0.000177758007
0.000178545694
0.00017933667
0.000180130945
0.000180928533
0.000181729447
0.0001825337
0.000183341305
0.000184152274
0.000184966621
0.000185784359
0.0001866055
0.000187430059
0.000188258048
0.000189089481
0.00018992437
0.00019076273
0.000191604574
0.000192449915
0.000193298766
0.000194151142
0.000195007056
0.000195866521
0.000196729551
0.000197596161
0.000198466363
0.000199340172
0.000200217601
0.000201098665
0.000201983377
0.000202871752
0.000203763803
0.000204659545
0.000205558992
0.000206462158
0.000207369058
0.000208279705
0.000209194114
0.000210112301
0.000211034278
0.000211960061
0.000212889664
0.000213823102
0.00021476039
0.000215701542
0.000216646573
0.000217595498
0.000218548332
0.00021950509
0.000220465787
0.000221430438
0.000222399058
0.000223371661
0.000224348265
0.000225328883
0.000226313531
0.000227302224
0.000228294978
0.000229291809
0.000230292731
0.000231297761
0.000232306914
0.000233320205
0.000234337651
0.000235359268
0.00023638507
0.000237415075
0.000238449298
0.000239487755
0.000240530462
0.000241577435
0.000242628691
0.000243684245
0.000244744115
0.000245808316
0.000246876865
0.000247949779
0.000249027073
0.000250108764
0.00025119487
0.000252285407
0.000253380391
0.000254479839
0.000255583769
0.000256692197
0.00025780514
0.000258922615
0.00026004464
0.000261171231
0.000262302406
0.000263438182
0.000264578576
0.000265723606
0.000266873289
0.000268027644
0.000269186686
0.000270350434
0.000271518906
0.00027269212
0.000273870093
0.000275052843
0.000276240388
0.000277432746
0.000278629935
0.000279831974
0.00028103888
0.000282250672
0.000283467369
0.000284688987
0.000285915547
0.000287147065
0.000288383562
0.000289625056
0.000290871565
0.000292123107
0.000293379703
0.00029464137
0.000295908129
0.000297179997
0.000298456993
0.000299739138
0.00030102645
0.000302318948
0.000303616652
0.000304919581
0.000306227754
0.000307541192
0.000308859914
0.000310183939
0.000311513287
0.000312847978
0.000314188031
0.000315533468
0.000316884307
0.000318240569
0.000319602274
0.000320969442
0.000322342094
0.000323720249
0.000325103928
0.000326493152
0.000327887941
0.000329288316
0.000330694297
0.000332105906
0.000333523162
0.000334946087
0.000336374702
0.000337809028
0.000339249086
0.000340694897
0.000342146483
0.000343603864
0.000345067062
0.000346536098
0.000348010995
0.000349491773
0.000350978455
0.000352471061
0.000353969614
0.000355474136
0.000356984649
0.000358501175
0.000360023735
0.000361552352
0.000363087048
0.000364627846
0.000366174768
0.000367727836
0.000369287073
0.000370852502
0.000372424145
0.000374002025
0.000375586165
0.000377176588
0.000378773316
0.000380376374
0.000381985783
0.000383601568
0.000385223751
0.000386852356
0.000388487407
0.000390128926
0.000391776938
0.000393431466
0.000395092534
0.000396760165
0.000398434385
0.000400115216
0.000401802683
0.00040349681
0.000405197621
0.000406905141
0.000408619393
0.000410340403
0.000412068195
0.000413802794
0.000415544223
0.000417292509
0.000419047676
0.000420809748
0.000422578752
0.000424354712
0.000426137653
0.0004279276
0.00042972458
0.000431528616
0.000433339736
0.000435157964
0.000436983327
0.000438815849
0.000440655558
0.000442502478
0.000444356636
0.000446218058
0.000448086771
0.0004499628
0.000451846171
0.000453736912
0.000455635049
0.000457540609
0.000459453617
0.000461374102
0.000463302089
0.000465237607
0.000467180681
0.00046913134
0.00047108961
0.000473055518
0.000475029093
0.000477010361
0.000478999351
0.000480996089
0.000483000604
0.000485012924
0.000487033076
0.000489061088
0.000491096989
0.000493140807
0.00049519257
0.000497252307
0.000499320045
0.000501395815
0.000503479643
0.00050557156
0.000507671594
0.000509779773
0.000511896128
0.000514020686
0.000516153478
0.000518294532
0.000520443879
0.000522601547
0.000524767566
0.000526941966
0.000529124776
0.000531316027
0.000533515749
0.000535723971
0.000537940724
0.000540166038
0.000542399943
