# Pulseq sequence file
# Created by MATLAB mr toolbox

[VERSION]
major 1
minor 5
revision 0

[DEFINITIONS]
AccelerationFactorPE 2 
AdcRasterTime 1e-07 
BlockDurationRaster 1e-05 
FOV 0.22 0.22 0.0015 
FirstFourierLine 1 
FirstRefLine 22 
GradientRasterTime 1e-05 
Name epi 
PhaseEncodingLine_DIFF 146 
PhaseResolution 1 
RadiofrequencyRasterTime 1e-06 
ReadoutOversamplingFactor 2 
ReceiverGainHigh 1 
RefLinesPE 30 
SliceGap 0 
SlicePositions 0 
SliceThickness 0.0015 
TargetGriddedSamples 292 
TotalDuration 208.66838 
TrapezoidGriddingParameters 0.00023 0.00023 0.00023 5.3e-05 0.000584 
kSpaceCenterLine 37 

# Format of blocks:
# NUM DUR RF  GX  GY  GZ  ADC  EXT
[BLOCKS]
   1   0   0   0   0   0  0  3
   2  65   0   0   0   0  1  4
   3   0   0   0   0   0  0  5
   4 350   0   1   1   1  0  0
   5 1163   1   2   2   2  0  0
   6 375   2   0   0   3  0  6
   7 103   0   4   0   5  0  0
   8  69   0   6   0   0  0  0
   9  69   0   7   0   0  0  0
  10  69   0   6   0   0  0  0
  11  46   0   8   0   0  0  0
  12 1728   0   0   0   0  0  0
  13 684   3  10  10   9  0  0
  14 866   0   0   0   0  0  0
  15 103   0   4  11   0  0  0
  16  69   0   6  12   0  0  0
  17  69   0   7  13   0  0  7
  18  69   0   6  13   0  0  8
  19  69   0   7  13   0  0  7
  20  69   0   6  13   0  0  8
  21  69   0   7  13   0  0  7
  22  69   0   6  13   0  0  8
  23  69   0   7  13   0  0  7
  24  69   0   6  13   0  0  8
  25  69   0   7  13   0  0  7
  26  69   0   6  13   0  0  8
  27  69   0   7  13   0  0  7
  28  69   0   6  13   0  0  8
  29  69   0   7  13   0  0  7
  30  69   0   6  13   0  0  8
  31  69   0   7  13   0  0  7
  32  69   0   6  13   0  0  8
  33  69   0   7  13   0  0  7
  34  69   0   6  13   0  0  8
  35  69   0   7  13   0  0  7
  36  69   0   6  13   0  0  8
  37  69   0   7  13   0  0  7
  38  69   0   6  13   0  0  8
  39  69   0   7  13   0  0  7
  40  69   0   6  13   0  0  8
  41  69   0   7  13   0  0  7
  42  69   0   6  13   0  0  8
  43  69   0   7  13   0  0  7
  44  69   0   6  13   0  0  8
  45  69   0   7  13   0  0  7
  46  69   0   6  13   0  0  8
  47  69   0   7  13   0  0  7
  48  69   0   6  13   0  0  8
  49  69   0   7  13   0  0  7
  50  69   0   6  13   0  0  8
  51  69   0   7  13   0  0  7
  52  69   0   6  13   0  0  8
  53  69   0   7  14   0  0  0
  54  60   0  16  15   0  0  0
  55 293005   0   0   0   0  0  0
  56   0   0   0   0   0  0  9
  57 350   0   1   1   1  0  0
  58 1163   1   2   2   2  0  0
  59 375   2   0   0   3  0  6
  60 103   0   4   0   5  0  0
  61  69   0   6   0   0  0  0
  62  69   0   7   0   0  0  0
  63  69   0   6   0   0  0  0
  64  46   0   8   0   0  0  0
  65 1728   0   0   0   0  0  0
  66 684   3  10  10   9  0  0
  67 866   0   0   0   0  0  0
  68 103   0   4  11   0  0  0
  69  69   0   6  12   0  0  0
  70  69   0   7  13   0  0  7
  71  69   0   6  13   0  0  8
  72  69   0   7  13   0  0  7
  73  69   0   6  13   0  0  8
  74  69   0   7  13   0  0  7
  75  69   0   6  13   0  0  8
  76  69   0   7  13   0  0  7
  77  69   0   6  13   0  0  8
  78  69   0   7  13   0  0  7
  79  69   0   6  13   0  0  8
  80  69   0   7  13   0  0  7
  81  69   0   6  13   0  0  8
  82  69   0   7  13   0  0  7
  83  69   0   6  13   0  0  8
  84  69   0   7  13   0  0  7
  85  69   0   6  13   0  0  8
  86  69   0   7  13   0  0  7
  87  69   0   6  13   0  0  8
  88  69   0   7  13   0  0  7
  89  69   0   6  13   0  0  8
  90  69   0   7  13   0  0  7
  91  69   0   6  13   0  0  8
  92  69   0   7  13   0  0  7
  93  69   0   6  13   0  0  8
  94  69   0   7  13   0  0  7
  95  69   0   6  13   0  0  8
  96  69   0   7  13   0  0  7
  97  69   0   6  13   0  0  8
  98  69   0   7  13   0  0  7
  99  69   0   6  13   0  0  8
 100  69   0   7  13   0  0  7
 101  69   0   6  13   0  0  8
 102  69   0   7  13   0  0  7
 103  69   0   6  13   0  0  8
 104  69   0   7  13   0  0  7
 105  69   0   6  13   0  0  8
 106  69   0   7  14   0  0  0
 107  60   0  16  15   0  0  0
 108 293005   0   0   0   0  0  0
 109   0   0   0   0   0  0  9
 110 350   0   1   1   1  0  0
 111 1163   1   2   2   2  0  0
 112 375   2   0   0   3  0  6
 113 103   0   4   0   5  0  0
 114  69   0   6   0   0  0  0
 115  69   0   7   0   0  0  0
 116  69   0   6   0   0  0  0
 117  46   0   8   0   0  0  0
 118 1728   0   0   0   0  0  0
 119 684   3  10  10   9  0  0
 120 866   0   0   0   0  0  0
 121 103   0   4  11   0  0  0
 122  69   0   6  12   0  0  0
 123  69   0   7  13   0  0  7
 124  69   0   6  13   0  0  8
 125  69   0   7  13   0  0  7
 126  69   0   6  13   0  0  8
 127  69   0   7  13   0  0  7
 128  69   0   6  13   0  0  8
 129  69   0   7  13   0  0  7
 130  69   0   6  13   0  0  8
 131  69   0   7  13   0  0  7
 132  69   0   6  13   0  0  8
 133  69   0   7  13   0  0  7
 134  69   0   6  13   0  0  8
 135  69   0   7  13   0  0  7
 136  69   0   6  13   0  0  8
 137  69   0   7  13   0  0  7
 138  69   0   6  13   0  0  8
 139  69   0   7  13   0  0  7
 140  69   0   6  13   0  0  8
 141  69   0   7  13   0  0  7
 142  69   0   6  13   0  0  8
 143  69   0   7  13   0  0  7
 144  69   0   6  13   0  0  8
 145  69   0   7  13   0  0  7
 146  69   0   6  13   0  0  8
 147  69   0   7  13   0  0  7
 148  69   0   6  13   0  0  8
 149  69   0   7  13   0  0  7
 150  69   0   6  13   0  0  8
 151  69   0   7  13   0  0  7
 152  69   0   6  13   0  0  8
 153  69   0   7  13   0  0  7
 154  69   0   6  13   0  0  8
 155  69   0   7  13   0  0  7
 156  69   0   6  13   0  0  8
 157  69   0   7  13   0  0  7
 158  69   0   6  13   0  0  8
 159  69   0   7  14   0  0  0
 160  60   0  16  15   0  0  0
 161 293005   0   0   0   0  0  0
 162   0   0   0   0   0  0  9
 163   0   0   0   0   0  0 10
 164 350   0   1   1   1  0  0
 165 1163   1   2   2   2  0  0
 166 375   2   0   0   3  0  6
 167 103   0   4   0   5  0 12
 168   0   0   0   0   0  0 13
 169   0   0   0   0   0  0 15
 170  69   0   6   0   0  1  0
 171   0   0   0   0   0  0 17
 172  69   0   7   0   0  1  0
 173   0   0   0   0   0  0 18
 174  69   0   6   0   0  1  0
 175  46   0   8   0   0  0 12
 176 1728   0   0   0   0  0  0
 177 684   3  10  10   9  0  0
 178 866   0   0   0   0  0  0
 179   0   0   0   0   0  0 19
 180 103   0   4  11   0  0 22
 181  69   0   6  12   0  0 25
 182  69   0   7  13   0  0 27
 183  69   0   6  13   0  0 25
 184  69   0   7  13   0  1 27
 185  69   0   6  13   0  1 25
 186  69   0   7  13   0  1 27
 187  69   0   6  13   0  1 25
 188  69   0   7  13   0  1 27
 189  69   0   6  13   0  1 25
 190  69   0   7  13   0  1 27
 191  69   0   6  13   0  1 25
 192  69   0   7  13   0  1 27
 193  69   0   6  13   0  1 25
 194  69   0   7  13   0  1 27
 195  69   0   6  13   0  1 25
 196  69   0   7  13   0  1 27
 197  69   0   6  13   0  1 25
 198  69   0   7  13   0  1 27
 199  69   0   6  13   0  1 25
 200  69   0   7  13   0  1 27
 201  69   0   6  13   0  1 25
 202  69   0   7  13   0  1 27
 203  69   0   6  13   0  1 25
 204  69   0   7  13   0  1 27
 205  69   0   6  13   0  1 25
 206  69   0   7  13   0  1 27
 207  69   0   6  13   0  1 25
 208  69   0   7  13   0  1 27
 209  69   0   6  13   0  1 25
 210  69   0   7  13   0  1 27
 211  69   0   6  13   0  1 25
 212  69   0   7  13   0  1 27
 213  69   0   6  13   0  1 25
 214  69   0   7  13   0  0 27
 215  69   0   6  13   0  0 25
 216  69   0   7  13   0  0 27
 217  69   0   6  13   0  0 25
 218  69   0   7  14   0  0 27
 219  60   0  16  15   0  0  0
 220 293005   0   0   0   0  0  0
 221   0   0   0   0   0  0  9
 222   0   0   0   0   0  0 13
 223   0   0   0   0   0  0 10
 224 350   0   1   1   1  0  0
 225 1163   1   2   2   2  0  0
 226 375   2   0   0   3  0  6
 227 103   0   0   0   5  0 29
 228 1981   0  17  17  17  0  0
 229 684   3  10  10   9  0  0
 230 866   0  18  18  18  0  0
 231 103   0   4  19   0  0 31
 232  69   0   6  20   0  1 25
 233  69   0   7  21   0  1 34
 234  69   0   6  21   0  1 36
 235  69   0   7  21   0  1 34
 236  69   0   6  21   0  1 36
 237  69   0   7  21   0  1 34
 238  69   0   6  21   0  1 36
 239  69   0   7  21   0  1 34
 240  69   0   6  21   0  1 36
 241  69   0   7  21   0  1 34
 242  69   0   6  21   0  1 36
 243  69   0   7  21   0  1 34
 244  69   0   6  21   0  1 36
 245  69   0   7  21   0  1 34
 246  69   0   6  21   0  1 36
 247  69   0   7  21   0  1 34
 248  69   0   6  21   0  1 36
 249  69   0   7  21   0  1 34
 250  69   0   6  21   0  1 36
 251  69   0   7  21   0  1 34
 252  69   0   6  21   0  1 36
 253  69   0   7  21   0  1 34
 254  69   0   6  21   0  1 36
 255  69   0   7  21   0  1 34
 256  69   0   6  21   0  1 36
 257  69   0   7  21   0  1 34
 258  69   0   6  21   0  1 36
 259  69   0   7  21   0  1 34
 260  69   0   6  21   0  1 36
 261  69   0   7  21   0  1 34
 262  69   0   6  21   0  1 36
 263  69   0   7  21   0  1 34
 264  69   0   6  21   0  1 36
 265  69   0   7  21   0  1 34
 266  69   0   6  21   0  1 36
 267  69   0   7  21   0  1 34
 268  69   0   6  21   0  1 36
 269  69   0   7  21   0  1 34
 270  69   0   6  21   0  1 36
 271  69   0   7  21   0  1 34
 272  69   0   6  21   0  1 36
 273  69   0   7  21   0  1 34
 274  69   0   6  21   0  1 36
 275  69   0   7  21   0  1 34
 276  69   0   6  21   0  1 36
 277  69   0   7  21   0  1 34
 278  69   0   6  21   0  1 36
 279  69   0   7  21   0  1 34
 280  69   0   6  21   0  1 36
 281  69   0   7  21   0  1 34
 282  69   0   6  21   0  1 36
 283  69   0   7  21   0  1 34
 284  69   0   6  21   0  1 36
 285  69   0   7  21   0  1 34
 286  69   0   6  22   0  1 36
 287  60   0  23  24   0  0  0
 288 293005   0   0   0   0  0  0
 289   0   0   0   0   0  0  9
 290   0   0   0   0   0  0 37
 291   0   0   0   0   0  0 10
 292 350   0   1   1   1  0  0
 293 1163   1   2   2   2  0  0
 294 375   2   0   0   3  0  6
 295 103   0   0   0   5  0 29
 296 1981   0  25  26  27  0  0
 297 684   3  10  10   9  0  0
 298 866   0  28  29  30  0  0
 299 103   0   4  19   0  0 31
[RF]
1      129.712 2 3 0 4000 100 -3.45 0.086708 0 0 s
2       292.11 4 5 6 1725 150 0 0 0 -0 e
3      845.482 7 8 9 2880.75 410 0 0 -0 -1.5708 r

# Format of arbitrary gradients:
#   time_shape_id of 0 means default timing (stepping with grad_raster starting at 1/2 of grad_raster)
# id amplitude first last amp_shape_id time_shape_id delay
# ..      Hz/m  Hz/m Hz/m        ..         ..          us
[GRADIENTS]
9 -1.51681e+06           -0           -0 10 11 0
10 -1.51681e+06           -0           -0 12 11 0
12      -113636            0      -113636 13 14 660
13      -113636      -113636      -113636 15 16 0
14      -113636      -113636            0 17 18 0
17            0            0            0 19 0 0
18            0            0            0 20 0 0
20      -181818            0      -181818 13 21 650
21      -181818      -181818      -181818 15 22 0
22      -181818      -181818            0 17 23 0
25       133013            0            0 24 0 0
26  1.54849e+06            0            0 24 0 0
27  7.84676e+06            0            0 24 0 0
28       133084            0            0 25 0 0
29  1.54931e+06            0            0 25 0 0
30  7.85095e+06            0            0 25 0 0
31  1.89446e+06            0            0 24 0 0
32  2.21449e+06            0            0 24 0 0
33  7.44944e+06            0            0 24 0 0
34  1.89547e+06            0            0 25 0 0
35  2.21567e+06            0            0 25 0 0
36  7.45342e+06            0            0 25 0 0
37  2.71475e+06            0            0 24 0 0
38      -353269           -0           -0 24 0 0
39  7.51615e+06            0            0 24 0 0
40   2.7162e+06            0            0 25 0 0
41      -353457           -0           -0 25 0 0
42  7.52016e+06            0            0 25 0 0
43      -355836           -0           -0 24 0 0
44 -1.47296e+06           -0           -0 24 0 0
45  7.85436e+06            0            0 24 0 0
46      -356026           -0           -0 25 0 0
47 -1.47375e+06           -0           -0 25 0 0
48  7.85855e+06            0            0 25 0 0
49 -1.90811e+06           -0           -0 24 0 0
50  1.95429e+06            0            0 24 0 0
51  7.51844e+06            0            0 24 0 0
52 -1.90913e+06           -0           -0 25 0 0
53  1.95533e+06            0            0 25 0 0
54  7.52246e+06            0            0 25 0 0
55  1.75206e+06            0            0 24 0 0
56  3.88463e+06            0            0 24 0 0
57  6.76957e+06            0            0 24 0 0
58  1.75299e+06            0            0 25 0 0
59   3.8867e+06            0            0 25 0 0
60  6.77318e+06            0            0 25 0 0
61  4.21538e+06            0            0 24 0 0
62      15094.9            0            0 24 0 0
63  6.79835e+06            0            0 24 0 0
64  4.21763e+06            0            0 25 0 0
65      15102.9            0            0 25 0 0
66  6.80197e+06            0            0 25 0 0
67       315524            0            0 24 0 0
68 -2.93982e+06           -0           -0 24 0 0
69   7.4327e+06            0            0 24 0 0
70       315692            0            0 25 0 0
71 -2.94139e+06           -0           -0 25 0 0
72  7.43667e+06            0            0 25 0 0
73 -3.21063e+06           -0           -0 24 0 0
74       949131            0            0 24 0 0
75  7.26486e+06            0            0 24 0 0
76 -3.21234e+06           -0           -0 25 0 0
77       949638            0            0 25 0 0
78  7.26873e+06            0            0 25 0 0
79       528163            0            0 24 0 0
80  4.92683e+06            0            0 24 0 0
81  6.27969e+06            0            0 24 0 0
82       528445            0            0 25 0 0
83  4.92946e+06            0            0 25 0 0
84  6.28304e+06            0            0 25 0 0
85  5.06952e+06            0            0 24 0 0
86  1.29052e+06            0            0 24 0 0
87  6.05158e+06            0            0 24 0 0
88  5.07223e+06            0            0 25 0 0
89  1.29121e+06            0            0 25 0 0
90  6.05481e+06            0            0 25 0 0
91  1.74793e+06            0            0 24 0 0
92 -3.73883e+06           -0           -0 24 0 0
93  6.85223e+06            0            0 24 0 0
94  1.74886e+06            0            0 25 0 0
95 -3.74083e+06           -0           -0 25 0 0
96  6.85588e+06            0            0 25 0 0
97 -3.79857e+06           -0           -0 24 0 0
98      -706762           -0           -0 24 0 0
99  7.00418e+06            0            0 24 0 0
100  -3.8006e+06           -0           -0 25 0 0
101      -707139           -0           -0 25 0 0
102  7.00791e+06            0            0 25 0 0
103 -1.22816e+06           -0           -0 24 0 0
104  5.22426e+06            0            0 24 0 0
105  5.93177e+06            0            0 24 0 0
106 -1.22881e+06           -0           -0 25 0 0
107  5.22705e+06            0            0 25 0 0
108  5.93493e+06            0            0 25 0 0
109  5.13976e+06            0            0 24 0 0
110  3.00308e+06            0            0 24 0 0
111  5.34336e+06            0            0 24 0 0
112   5.1425e+06            0            0 25 0 0
113  3.00468e+06            0            0 25 0 0
114  5.34621e+06            0            0 25 0 0
115  3.50576e+06            0            0 24 0 0
116 -3.73148e+06           -0           -0 24 0 0
117  6.14596e+06            0            0 24 0 0
118  3.50763e+06            0            0 25 0 0
119 -3.73347e+06           -0           -0 25 0 0
120  6.14924e+06            0            0 25 0 0
121 -3.55687e+06           -0           -0 24 0 0
122  -2.5977e+06           -0           -0 24 0 0
123  6.67741e+06            0            0 24 0 0
124 -3.55877e+06           -0           -0 25 0 0
125 -2.59909e+06           -0           -0 25 0 0
126  6.68097e+06            0            0 25 0 0
127 -3.11032e+06           -0           -0 24 0 0
128  4.68233e+06            0            0 24 0 0
129  5.69112e+06            0            0 24 0 0
130 -3.11198e+06           -0           -0 25 0 0
131  4.68483e+06            0            0 25 0 0
132  5.69416e+06            0            0 25 0 0
133  4.36606e+06            0            0 24 0 0
134  4.75419e+06            0            0 24 0 0
135  4.72465e+06            0            0 24 0 0
136  4.36839e+06            0            0 25 0 0
137  4.75673e+06            0            0 25 0 0
138  4.72717e+06            0            0 25 0 0
139  5.19609e+06            0            0 24 0 0
140 -2.88499e+06           -0           -0 24 0 0
141  5.35394e+06            0            0 24 0 0
142  5.19886e+06            0            0 25 0 0
143 -2.88653e+06           -0           -0 25 0 0
144  5.35679e+06            0            0 25 0 0
145 -2.49098e+06           -0           -0 24 0 0
146 -4.33778e+06           -0           -0 24 0 0
147  6.24227e+06            0            0 24 0 0
148 -2.49231e+06           -0           -0 25 0 0
149 -4.34009e+06           -0           -0 25 0 0
150   6.2456e+06            0            0 25 0 0
151 -4.74104e+06           -0           -0 24 0 0
152   3.3359e+06            0            0 24 0 0
153  5.51194e+06            0            0 24 0 0
154 -4.74357e+06           -0           -0 25 0 0
155  3.33768e+06            0            0 25 0 0
156  5.51488e+06            0            0 25 0 0
157   2.8219e+06            0            0 24 0 0
158  6.17631e+06            0            0 24 0 0
159  4.22814e+06            0            0 24 0 0
160  2.82341e+06            0            0 25 0 0
161  6.17961e+06            0            0 25 0 0
162   4.2304e+06            0            0 25 0 0
163  6.46523e+06            0            0 24 0 0
164 -1.30206e+06           -0           -0 24 0 0
165  4.52687e+06            0            0 24 0 0
166  6.46868e+06            0            0 25 0 0
167 -1.30275e+06           -0           -0 25 0 0
168  4.52929e+06            0            0 25 0 0
169      -740487           -0           -0 24 0 0
170 -5.58715e+06           -0           -0 24 0 0
171   5.6765e+06            0            0 24 0 0
172      -740882           -0           -0 25 0 0
173 -5.59013e+06           -0           -0 25 0 0
174  5.67952e+06            0            0 25 0 0
175 -5.80024e+06           -0           -0 24 0 0
176  1.35193e+06            0            0 24 0 0
177   5.3401e+06            0            0 24 0 0
178 -5.80333e+06           -0           -0 25 0 0
179  1.35265e+06            0            0 25 0 0
180  5.34295e+06            0            0 25 0 0
181       707838            0            0 24 0 0
182  6.96758e+06            0            0 24 0 0
183  3.86509e+06            0            0 24 0 0
184       708216            0            0 25 0 0
185   6.9713e+06            0            0 25 0 0
186  3.86715e+06            0            0 25 0 0
187  7.03685e+06            0            0 24 0 0
188       792461            0            0 24 0 0
189  3.72047e+06            0            0 24 0 0
190   7.0406e+06            0            0 25 0 0
191       792883            0            0 25 0 0
192  3.72245e+06            0            0 25 0 0
193  1.44086e+06            0            0 24 0 0
194  -6.0918e+06           -0           -0 24 0 0
195  4.98007e+06            0            0 24 0 0
196  1.44163e+06            0            0 25 0 0
197 -6.09505e+06           -0           -0 25 0 0
198  4.98272e+06            0            0 25 0 0
199 -6.06452e+06           -0           -0 24 0 0
200      -995561           -0           -0 24 0 0
201  5.12031e+06            0            0 24 0 0
202 -6.06776e+06           -0           -0 25 0 0
203      -996092           -0           -0 25 0 0
204  5.12304e+06            0            0 25 0 0
205 -1.67908e+06           -0           -0 24 0 0
206  6.93046e+06            0            0 24 0 0
207  3.62444e+06            0            0 24 0 0
208 -1.67998e+06           -0           -0 25 0 0
209  6.93416e+06            0            0 25 0 0
210  3.62637e+06            0            0 25 0 0
211  6.74815e+06            0            0 24 0 0
212  3.08611e+06            0            0 24 0 0
213  2.98756e+06            0            0 24 0 0
214  6.75175e+06            0            0 25 0 0
215  3.08775e+06            0            0 25 0 0
216  2.98915e+06            0            0 25 0 0
217  3.72425e+06            0            0 24 0 0
218  -5.7175e+06           -0           -0 24 0 0
219  4.17461e+06            0            0 24 0 0
220  3.72624e+06            0            0 25 0 0
221 -5.72055e+06           -0           -0 25 0 0
222  4.17683e+06            0            0 25 0 0
223 -5.43735e+06           -0           -0 24 0 0
224 -3.36781e+06           -0           -0 24 0 0
225   4.8042e+06            0            0 24 0 0
226 -5.44025e+06           -0           -0 25 0 0
227  -3.3696e+06           -0           -0 25 0 0
228  4.80676e+06            0            0 25 0 0
229 -3.99101e+06           -0           -0 24 0 0
230  5.99868e+06            0            0 24 0 0
231  3.47489e+06            0            0 24 0 0
232 -3.99314e+06           -0           -0 25 0 0
233  6.00188e+06            0            0 25 0 0
234  3.47674e+06            0            0 25 0 0
235  5.57215e+06            0            0 24 0 0
236  5.22687e+06            0            0 24 0 0
237  2.37026e+06            0            0 24 0 0
238  5.57512e+06            0            0 25 0 0
239  5.22966e+06            0            0 25 0 0
240  2.37152e+06            0            0 25 0 0
241  5.75619e+06            0            0 24 0 0
242 -4.46816e+06           -0           -0 24 0 0
243  3.29984e+06            0            0 24 0 0
244  5.75926e+06            0            0 25 0 0
245 -4.47055e+06           -0           -0 25 0 0
246   3.3016e+06            0            0 25 0 0
247 -3.96205e+06           -0           -0 24 0 0
248 -5.41311e+06           -0           -0 24 0 0
249  4.35748e+06            0            0 24 0 0
250 -3.96416e+06           -0           -0 25 0 0
251   -5.416e+06           -0           -0 25 0 0
252   4.3598e+06            0            0 25 0 0
253 -5.88241e+06           -0           -0 24 0 0
254  4.24601e+06            0            0 24 0 0
255  3.36983e+06            0            0 24 0 0
256 -5.88555e+06           -0           -0 25 0 0
257  4.24827e+06            0            0 25 0 0
258  3.37163e+06            0            0 25 0 0
259  3.62071e+06            0            0 24 0 0
260  6.87689e+06            0            0 24 0 0
261  1.89368e+06            0            0 24 0 0
262  3.62264e+06            0            0 25 0 0
263  6.88056e+06            0            0 25 0 0
264  1.89469e+06            0            0 25 0 0
265  7.21239e+06            0            0 24 0 0
266 -2.48452e+06           -0           -0 24 0 0
267  2.40744e+06            0            0 24 0 0
268  7.21623e+06            0            0 25 0 0
269 -2.48585e+06           -0           -0 25 0 0
270  2.40873e+06            0            0 25 0 0
271 -1.81476e+06           -0           -0 24 0 0
272 -6.82037e+06           -0           -0 24 0 0
273  3.76515e+06            0            0 24 0 0
274 -1.81573e+06           -0           -0 25 0 0
275 -6.82401e+06           -0           -0 25 0 0
276  3.76716e+06            0            0 25 0 0
277 -7.06262e+06           -0           -0 24 0 0
278   1.8748e+06            0            0 24 0 0
279  3.25448e+06            0            0 24 0 0
280 -7.06639e+06           -0           -0 25 0 0
281   1.8758e+06            0            0 25 0 0
282  3.25622e+06            0            0 25 0 0
283   1.1276e+06            0            0 24 0 0
284  7.76372e+06            0            0 24 0 0
285  1.56214e+06            0            0 24 0 0
286   1.1282e+06            0            0 25 0 0
287  7.76786e+06            0            0 25 0 0
288  1.56297e+06            0            0 25 0 0
289  7.84691e+06            0            0 24 0 0
290     -22957.7           -0           -0 24 0 0
291  1.55325e+06            0            0 24 0 0
292   7.8511e+06            0            0 25 0 0
293     -22969.9           -0           -0 25 0 0
294  1.55408e+06            0            0 25 0 0
295       721894            0            0 24 0 0
296 -7.36627e+06           -0           -0 24 0 0
297  3.03382e+06            0            0 24 0 0
298       722279            0            0 25 0 0
299  -7.3702e+06           -0           -0 25 0 0
300  3.03544e+06            0            0 25 0 0
301 -7.33991e+06           -0           -0 24 0 0
302      -814132           -0           -0 24 0 0
303  3.07409e+06            0            0 24 0 0
304 -7.34383e+06           -0           -0 25 0 0
305      -814566           -0           -0 25 0 0
306  3.07573e+06            0            0 25 0 0
307 -1.58628e+06           -0           -0 24 0 0
308  7.72177e+06            0            0 24 0 0
309  1.35836e+06            0            0 24 0 0
310 -1.58713e+06           -0           -0 25 0 0
311  7.72589e+06            0            0 25 0 0
312  1.35909e+06            0            0 25 0 0
313  7.52964e+06            0            0 24 0 0
314   2.5825e+06            0            0 24 0 0
315       788861            0            0 24 0 0
316  7.53366e+06            0            0 25 0 0
317  2.58388e+06            0            0 25 0 0
318       789282            0            0 25 0 0
319  3.30068e+06            0            0 24 0 0
320 -6.94933e+06           -0           -0 24 0 0
321  2.19078e+06            0            0 24 0 0
322  3.30244e+06            0            0 25 0 0
323 -6.95303e+06           -0           -0 25 0 0
324  2.19195e+06            0            0 25 0 0
325 -6.65084e+06           -0           -0 24 0 0
326 -3.46598e+06           -0           -0 24 0 0
327  2.78217e+06            0            0 24 0 0
328 -6.65439e+06           -0           -0 25 0 0
329 -3.46783e+06           -0           -0 25 0 0
330  2.78365e+06            0            0 25 0 0
331 -4.16026e+06           -0           -0 24 0 0
332  6.71766e+06            0            0 24 0 0
333  1.24598e+06            0            0 24 0 0
334 -4.16248e+06           -0           -0 25 0 0
335  6.72124e+06            0            0 25 0 0
336  1.24664e+06            0            0 25 0 0
337  6.26641e+06            0            0 24 0 0
338  4.96946e+06            0            0 24 0 0
339       153891            0            0 24 0 0
340  6.26976e+06            0            0 25 0 0
341  4.97211e+06            0            0 25 0 0
342       153973            0            0 25 0 0
343  5.56091e+06            0            0 24 0 0
344 -5.60576e+06           -0           -0 24 0 0
345  1.28017e+06            0            0 24 0 0
346  5.56388e+06            0            0 25 0 0
347 -5.60875e+06           -0           -0 25 0 0
348  1.28085e+06            0            0 25 0 0
349 -5.07054e+06           -0           -0 24 0 0
350 -5.72419e+06           -0           -0 24 0 0
351  2.34744e+06            0            0 24 0 0
352 -5.07324e+06           -0           -0 25 0 0
353 -5.72724e+06           -0           -0 25 0 0
354  2.34869e+06            0            0 25 0 0
355 -6.24702e+06           -0           -0 24 0 0
356  4.85611e+06            0            0 24 0 0
357  1.17474e+06            0            0 24 0 0
358 -6.25036e+06           -0           -0 25 0 0
359   4.8587e+06            0            0 25 0 0
360  1.17537e+06            0            0 25 0 0
361  4.19908e+06            0            0 24 0 0
362  6.80044e+06            0            0 24 0 0
363      -329913           -0           -0 24 0 0
364  4.20132e+06            0            0 25 0 0
365  6.80407e+06            0            0 25 0 0
366      -330089           -0           -0 25 0 0
367  7.18151e+06            0            0 24 0 0
368 -3.50514e+06           -0           -0 24 0 0
369       356500            0            0 24 0 0
370  7.18534e+06            0            0 25 0 0
371 -3.50701e+06           -0           -0 25 0 0
372       356690            0            0 25 0 0
373 -2.80255e+06           -0           -0 24 0 0
374 -7.28288e+06           -0           -0 24 0 0
375  1.75854e+06            0            0 24 0 0
376 -2.80405e+06           -0           -0 25 0 0
377 -7.28677e+06           -0           -0 25 0 0
378  1.75947e+06            0            0 25 0 0
379 -7.56362e+06           -0           -0 24 0 0
380  2.36546e+06            0            0 24 0 0
381  1.08782e+06            0            0 24 0 0
382 -7.56766e+06           -0           -0 25 0 0
383  2.36672e+06            0            0 25 0 0
384   1.0884e+06            0            0 25 0 0
385  1.58559e+06            0            0 24 0 0
386  7.81248e+06            0            0 24 0 0
387      -661992           -0           -0 24 0 0
388  1.58643e+06            0            0 25 0 0
389  7.81665e+06            0            0 25 0 0
390      -662345           -0           -0 25 0 0
391  7.92814e+06            0            0 24 0 0
392      -926309           -0           -0 24 0 0
393      -523181           -0           -0 24 0 0
394  7.93237e+06            0            0 25 0 0
395      -926803           -0           -0 25 0 0
396      -523460           -0           -0 25 0 0
397      -149871           -0           -0 24 0 0
398 -7.93174e+06           -0           -0 24 0 0
399  1.02575e+06            0            0 24 0 0
400      -149951           -0           -0 25 0 0
401 -7.93597e+06           -0           -0 25 0 0
402   1.0263e+06            0            0 25 0 0
403 -7.93303e+06           -0           -0 24 0 0
404      -435023           -0           -0 24 0 0
405       930065            0            0 24 0 0
406 -7.93726e+06           -0           -0 25 0 0
407      -435255           -0           -0 25 0 0
