# Pulseq sequence file
# Created by MATLAB mr toolbox

[VERSION]
major 1
minor 5
revision 0

[DEFINITIONS]
AccelerationFactorPE 2 
AdcRasterTime 1e-07 
BlockDurationRaster 1e-05 
FOV 0.22 0.22 0.045 
FirstFourierLine 1 
FirstRefLine 22 
GradientRasterTime 1e-05 
Name epi 
PhaseEncodingLine_DIFF 146 
PhaseResolution 1 
RadiofrequencyRasterTime 1e-06 
ReadoutOversamplingFactor 2 
ReceiverGainHigh 1 
RefLinesPE 30 
SliceGap 0 
SlicePositions -0.02175 -0.01875 -0.01575 -0.01275 -0.00975 -0.00675 -0.00375 -0.00075 0.00225 0.00525 0.00825 0.01125 0.01425 0.01725 0.02025 -0.02025 -0.01725 -0.01425 -0.01125 -0.00825 -0.00525 -0.00225 0.00075 0.00375 0.00675 0.00975 0.01275 0.01575 0.01875 0.02175 
SliceThickness 0.0015 
TargetGriddedSamples 292 
TotalDuration 26.0243 
TrapezoidGriddingParameters 0.00023 0.00023 0.00023 5.3e-05 0.000584 
kSpaceCenterLine 37 

# Format of blocks:
# NUM DUR RF  GX  GY  GZ  ADC  EXT
[BLOCKS]
    1   0   0   0   0   0  0  3
    2  65   0   0   0   0  1  4
    3   0   0   0   0   0  0  5
    4 350   0   1   1   1  0  0
    5 1163   1   2   2   2  0  0
    6 373   2   0   0   3  0  6
    7  97   0   4   0   5  0  0
    8  69   0   6   0   0  0  0
    9  69   0   7   0   0  0  0
   10  69   0   6   0   0  0  0
   11  46   0   8   0   0  0  0
   12 1347   0   0   0   0  0  0
   13 707   3  10  10   9  0  0
   14 511   0   0   0   0  0  0
   15  97   0   4  11   0  0  0
   16  69   0   6  12   0  0  0
   17  69   0   7  13   0  0  7
   18  69   0   6  13   0  0  8
   19  69   0   7  13   0  0  7
   20  69   0   6  13   0  0  8
   21  69   0   7  13   0  0  7
   22  69   0   6  13   0  0  8
   23  69   0   7  13   0  0  7
   24  69   0   6  13   0  0  8
   25  69   0   7  13   0  0  7
   26  69   0   6  13   0  0  8
   27  69   0   7  13   0  0  7
   28  69   0   6  13   0  0  8
   29  69   0   7  13   0  0  7
   30  69   0   6  13   0  0  8
   31  69   0   7  13   0  0  7
   32  69   0   6  13   0  0  8
   33  69   0   7  13   0  0  7
   34  69   0   6  13   0  0  8
   35  69   0   7  13   0  0  7
   36  69   0   6  13   0  0  8
   37  69   0   7  13   0  0  7
   38  69   0   6  13   0  0  8
   39  69   0   7  13   0  0  7
   40  69   0   6  13   0  0  8
   41  69   0   7  13   0  0  7
   42  69   0   6  13   0  0  8
   43  69   0   7  13   0  0  7
   44  69   0   6  13   0  0  8
   45  69   0   7  13   0  0  7
   46  69   0   6  13   0  0  8
   47  69   0   7  13   0  0  7
   48  69   0   6  13   0  0  8
   49  69   0   7  13   0  0  7
   50  69   0   6  13   0  0  8
   51  69   0   7  13   0  0  7
   52  69   0   6  13   0  0  8
   53  69   0   7  13   0  0  7
   54  69   0   6  13   0  0  8
   55  69   0   7  13   0  0  7
   56  69   0   6  13   0  0  8
   57  69   0   7  13   0  0  7
   58  69   0   6  13   0  0  8
   59  69   0   7  13   0  0  7
   60  69   0   6  13   0  0  8
   61  69   0   7  13   0  0  7
   62  69   0   6  13   0  0  8
   63  69   0   7  13   0  0  7
   64  69   0   6  13   0  0  8
   65  69   0   7  13   0  0  7
   66  69   0   6  13   0  0  8
   67  69   0   7  13   0  0  7
   68  69   0   6  13   0  0  8
   69  69   0   7  13   0  0  7
   70  69   0   6  14   0  0  0
   71  58   0  16  15   0  0  0
   72 5234   0   0   0   0  0  0
   73   0   0   0   0   0  0  9
   74 350   0   1   1   1  0  0
   75 1163   1   2   2   2  0  0
   76 373   2   0   0   3  0  6
   77  97   0   4   0   5  0  0
   78  69   0   6   0   0  0  0
   79  69   0   7   0   0  0  0
   80  69   0   6   0   0  0  0
   81  46   0   8   0   0  0  0
   82 1347   0   0   0   0  0  0
   83 707   3  10  10   9  0  0
   84 511   0   0   0   0  0  0
   85  35   0   0   0   0  0  0
   86  97   0   4  17   0  0  0
   87  69   0   6  12   0  0  0
   88  69   0   7  13   0  0  7
   89  69   0   6  13   0  0  8
   90  69   0   7  13   0  0  7
   91  69   0   6  13   0  0  8
   92  69   0   7  13   0  0  7
   93  69   0   6  13   0  0  8
   94  69   0   7  13   0  0  7
   95  69   0   6  13   0  0  8
   96  69   0   7  13   0  0  7
   97  69   0   6  13   0  0  8
   98  69   0   7  13   0  0  7
   99  69   0   6  13   0  0  8
  100  69   0   7  13   0  0  7
  101  69   0   6  13   0  0  8
  102  69   0   7  13   0  0  7
  103  69   0   6  13   0  0  8
  104  69   0   7  13   0  0  7
  105  69   0   6  13   0  0  8
  106  69   0   7  13   0  0  7
  107  69   0   6  13   0  0  8
  108  69   0   7  13   0  0  7
  109  69   0   6  13   0  0  8
  110  69   0   7  13   0  0  7
  111  69   0   6  13   0  0  8
  112  69   0   7  13   0  0  7
  113  69   0   6  13   0  0  8
  114  69   0   7  13   0  0  7
  115  69   0   6  13   0  0  8
  116  69   0   7  13   0  0  7
  117  69   0   6  13   0  0  8
  118  69   0   7  13   0  0  7
  119  69   0   6  13   0  0  8
  120  69   0   7  13   0  0  7
  121  69   0   6  13   0  0  8
  122  69   0   7  13   0  0  7
  123  69   0   6  13   0  0  8
  124  69   0   7  13   0  0  7
  125  69   0   6  13   0  0  8
  126  69   0   7  13   0  0  7
  127  69   0   6  13   0  0  8
  128  69   0   7  13   0  0  7
  129  69   0   6  13   0  0  8
  130  69   0   7  13   0  0  7
  131  69   0   6  13   0  0  8
  132  69   0   7  13   0  0  7
  133  69   0   6  13   0  0  8
  134  69   0   7  13   0  0  7
  135  69   0   6  13   0  0  8
  136  69   0   7  13   0  0  7
  137  69   0   6  13   0  0  8
  138  69   0   7  13   0  0  7
  139  69   0   6  13   0  0  8
  140  69   0   7  13   0  0  7
  141  69   0   6  14   0  0  0
  142  58   0  16  18   0  0  0
  143 5234   0   0   0   0  0  0
  144   0   0   0   0   0  0  9
  145 350   0   1   1   1  0  0
  146 1163   1   2   2   2  0  0
  147 373   2   0   0   3  0  6
  148  97   0   4   0   5  0  0
  149  69   0   6   0   0  0  0
  150  69   0   7   0   0  0  0
  151  69   0   6   0   0  0  0
  152  46   0   8   0   0  0  0
  153 1347   0   0   0   0  0  0
  154 707   3  10  10   9  0  0
  155 511   0   0   0   0  0  0
  156  97   0   4  11   0  0  0
  157  69   0   6  12   0  0  0
  158  69   0   7  13   0  0  7
  159  69   0   6  13   0  0  8
  160  69   0   7  13   0  0  7
  161  69   0   6  13   0  0  8
  162  69   0   7  13   0  0  7
  163  69   0   6  13   0  0  8
  164  69   0   7  13   0  0  7
  165  69   0   6  13   0  0  8
  166  69   0   7  13   0  0  7
  167  69   0   6  13   0  0  8
  168  69   0   7  13   0  0  7
  169  69   0   6  13   0  0  8
  170  69   0   7  13   0  0  7
  171  69   0   6  13   0  0  8
  172  69   0   7  13   0  0  7
  173  69   0   6  13   0  0  8
  174  69   0   7  13   0  0  7
  175  69   0   6  13   0  0  8
  176  69   0   7  13   0  0  7
  177  69   0   6  13   0  0  8
  178  69   0   7  13   0  0  7
  179  69   0   6  13   0  0  8
  180  69   0   7  13   0  0  7
  181  69   0   6  13   0  0  8
  182  69   0   7  13   0  0  7
  183  69   0   6  13   0  0  8
  184  69   0   7  13   0  0  7
  185  69   0   6  13   0  0  8
  186  69   0   7  13   0  0  7
  187  69   0   6  13   0  0  8
  188  69   0   7  13   0  0  7
  189  69   0   6  13   0  0  8
  190  69   0   7  13   0  0  7
  191  69   0   6  13   0  0  8
  192  69   0   7  13   0  0  7
  193  69   0   6  13   0  0  8
  194  69   0   7  13   0  0  7
  195  69   0   6  13   0  0  8
  196  69   0   7  13   0  0  7
  197  69   0   6  13   0  0  8
  198  69   0   7  13   0  0  7
  199  69   0   6  13   0  0  8
  200  69   0   7  13   0  0  7
  201  69   0   6  13   0  0  8
  202  69   0   7  13   0  0  7
  203  69   0   6  13   0  0  8
  204  69   0   7  13   0  0  7
  205  69   0   6  13   0  0  8
  206  69   0   7  13   0  0  7
  207  69   0   6  13   0  0  8
  208  69   0   7  13   0  0  7
  209  69   0   6  13   0  0  8
  210  69   0   7  13   0  0  7
  211  69   0   6  14   0  0  0
  212  58   0  16  15   0  0  0
  213 5234   0   0   0   0  0  0
  214   0   0   0   0   0  0  9
  215 350   0   1   1   1  0  0
  216 1163   1   2   2   2  0  0
  217 373   2   0   0   3  0  6
  218  97   0   4   0   5  0  0
  219  69   0   6   0   0  0  0
  220  69   0   7   0   0  0  0
  221  69   0   6   0   0  0  0
  222  46   0   8   0   0  0  0
  223 1347   0   0   0   0  0  0
  224 707   3  10  10   9  0  0
  225 511   0   0   0   0  0  0
  226  35   0   0   0   0  0  0
  227  97   0   4  17   0  0  0
  228  69   0   6  12   0  0  0
  229  69   0   7  13   0  0  7
  230  69   0   6  13   0  0  8
  231  69   0   7  13   0  0  7
  232  69   0   6  13   0  0  8
  233  69   0   7  13   0  0  7
  234  69   0   6  13   0  0  8
  235  69   0   7  13   0  0  7
  236  69   0   6  13   0  0  8
  237  69   0   7  13   0  0  7
  238  69   0   6  13   0  0  8
  239  69   0   7  13   0  0  7
  240  69   0   6  13   0  0  8
  241  69   0   7  13   0  0  7
  242  69   0   6  13   0  0  8
  243  69   0   7  13   0  0  7
  244  69   0   6  13   0  0  8
  245  69   0   7  13   0  0  7
  246  69   0   6  13   0  0  8
  247  69   0   7  13   0  0  7
  248  69   0   6  13   0  0  8
  249  69   0   7  13   0  0  7
  250  69   0   6  13   0  0  8
  251  69   0   7  13   0  0  7
  252  69   0   6  13   0  0  8
  253  69   0   7  13   0  0  7
  254  69   0   6  13   0  0  8
  255  69   0   7  13   0  0  7
  256  69   0   6  13   0  0  8
  257  69   0   7  13   0  0  7
  258  69   0   6  13   0  0  8
  259  69   0   7  13   0  0  7
  260  69   0   6  13   0  0  8
  261  69   0   7  13   0  0  7
  262  69   0   6  13   0  0  8
  263  69   0   7  13   0  0  7
  264  69   0   6  13   0  0  8
  265  69   0   7  13   0  0  7
  266  69   0   6  13   0  0  8
  267  69   0   7  13   0  0  7
  268  69   0   6  13   0  0  8
  269  69   0   7  13   0  0  7
  270  69   0   6  13   0  0  8
  271  69   0   7  13   0  0  7
  272  69   0   6  13   0  0  8
  273  69   0   7  13   0  0  7
  274  69   0   6  13   0  0  8
  275  69   0   7  13   0  0  7
  276  69   0   6  13   0  0  8
  277  69   0   7  13   0  0  7
  278  69   0   6  13   0  0  8
  279  69   0   7  13   0  0  7
  280  69   0   6  13   0  0  8
  281  69   0   7  13   0  0  7
  282  69   0   6  14   0  0  0
  283  58   0  16  18   0  0  0
[RF]
1      129.712 2 3 0 4000 100 -3.45 0.086708 0 0 s
2       292.11 4 5 6 1725 140 0 0 -12050.3 130.607 e
3      845.482 7 8 9 2880.75 660 0 0 11091 -202.321 r
4       292.11 4 5 6 1725 140 0 0 -10388.2 112.592 e
5      845.482 7 8 9 2880.75 660 0 0 9561.19 -174.631 r
6       292.11 4 5 6 1725 140 0 0 -8726.06 94.5773 e
7      845.482 7 8 9 2880.75 660 0 0 8031.4 -146.941 r
8       292.11 4 5 6 1725 140 0 0 -7063.95 76.5626 e
9      845.482 7 8 9 2880.75 660 0 0 6501.61 -119.252 r
10       292.11 4 5 6 1725 140 0 0 -5401.84 58.5479 e
11      845.482 7 8 9 2880.75 660 0 0 4971.82 -91.5622 r
12       292.11 4 5 6 1725 140 0 0 -3739.74 40.5331 e
13      845.482 7 8 9 2880.75 660 0 0 3442.03 -63.8725 r
14       292.11 4 5 6 1725 140 0 0 -2077.63 22.5184 e
15      845.482 7 8 9 2880.75 660 0 0 1912.24 -36.1829 r
16       292.11 4 5 6 1725 140 0 0 -415.527 4.50368 e
17      845.482 7 8 9 2880.75 660 0 0 382.448 -8.49321 r
18       292.11 4 5 6 1725 140 0 0 1246.58 -13.511 e
19      845.482 7 8 9 2880.75 660 0 0 -1147.34 19.1964 r
20       292.11 4 5 6 1725 140 0 0 2908.69 -31.5258 e
21      845.482 7 8 9 2880.75 660 0 0 -2677.13 46.8861 r
22       292.11 4 5 6 1725 140 0 0 4570.79 -49.5405 e
23      845.482 7 8 9 2880.75 660 0 0 -4206.92 74.5757 r
24       292.11 4 5 6 1725 140 0 0 6232.9 -67.5552 e
25      845.482 7 8 9 2880.75 660 0 0 -5736.71 102.265 r
26       292.11 4 5 6 1725 140 0 0 7895 -85.57 e
27      845.482 7 8 9 2880.75 660 0 0 -7266.51 129.955 r
28       292.11 4 5 6 1725 140 0 0 9557.11 -103.585 e
29      845.482 7 8 9 2880.75 660 0 0 -8796.3 157.645 r
30       292.11 4 5 6 1725 140 0 0 11219.2 -121.599 e
31      845.482 7 8 9 2880.75 660 0 0 -10326.1 185.334 r
32       292.11 4 5 6 1725 140 0 0 -11219.2 121.599 e
33      845.482 7 8 9 2880.75 660 0 0 10326.1 -188.476 r
34       292.11 4 5 6 1725 140 0 0 -9557.11 103.585 e
35      845.482 7 8 9 2880.75 660 0 0 8796.3 -160.786 r
36       292.11 4 5 6 1725 140 0 0 -7895 85.57 e
37      845.482 7 8 9 2880.75 660 0 0 7266.51 -133.097 r
38       292.11 4 5 6 1725 140 0 0 -6232.9 67.5552 e
39      845.482 7 8 9 2880.75 660 0 0 5736.71 -105.407 r
40       292.11 4 5 6 1725 140 0 0 -4570.79 49.5405 e
41      845.482 7 8 9 2880.75 660 0 0 4206.92 -77.7173 r
42       292.11 4 5 6 1725 140 0 0 -2908.69 31.5258 e
43      845.482 7 8 9 2880.75 660 0 0 2677.13 -50.0277 r
44       292.11 4 5 6 1725 140 0 0 -1246.58 13.511 e
45      845.482 7 8 9 2880.75 660 0 0 1147.34 -22.338 r
46       292.11 4 5 6 1725 140 0 0 415.527 -4.50368 e
47      845.482 7 8 9 2880.75 660 0 0 -382.448 5.35162 r
48       292.11 4 5 6 1725 140 0 0 2077.63 -22.5184 e
49      845.482 7 8 9 2880.75 660 0 0 -1912.24 33.0413 r
50       292.11 4 5 6 1725 140 0 0 3739.74 -40.5331 e
51      845.482 7 8 9 2880.75 660 0 0 -3442.03 60.7309 r
52       292.11 4 5 6 1725 140 0 0 5401.84 -58.5479 e
53      845.482 7 8 9 2880.75 660 0 0 -4971.82 88.4206 r
54       292.11 4 5 6 1725 140 0 0 7063.95 -76.5626 e
55      845.482 7 8 9 2880.75 660 0 0 -6501.61 116.11 r
56       292.11 4 5 6 1725 140 0 0 8726.06 -94.5773 e
57      845.482 7 8 9 2880.75 660 0 0 -8031.4 143.8 r
58       292.11 4 5 6 1725 140 0 0 10388.2 -112.592 e
59      845.482 7 8 9 2880.75 660 0 0 -9561.19 171.49 r
60       292.11 4 5 6 1725 140 0 0 12050.3 -130.607 e
61      845.482 7 8 9 2880.75 660 0 0 -11091 199.179 r

# Format of arbitrary gradients:
#   time_shape_id of 0 means default timing (stepping with grad_raster starting at 1/2 of grad_raster)
# id amplitude first last amp_shape_id time_shape_id delay
# ..      Hz/m  Hz/m Hz/m        ..         ..          us
[GRADIENTS]
9 -1.63491e+06           -0           -0 10 11 0
10 -1.63491e+06           -0           -0 12 11 0
12      -181818            0      -181818 13 14 650
13      -181818      -181818      -181818 15 16 0
14      -181818      -181818            0 17 18 0
19            0            0            0 19 0 0
20            0            0            0 20 0 0
21  5.34584e+06            0            0 21 0 0
22 -2.60317e+06           -0           -0 21 0 0
23  5.03359e+06            0            0 22 0 0
24 -2.45112e+06           -0           -0 22 0 0
25  5.29947e+06            0            0 21 0 0
26  -2.6963e+06           -0           -0 21 0 0
27  4.98994e+06            0            0 22 0 0
28 -2.53882e+06           -0           -0 22 0 0
29   5.0336e+06            0            0 22 0 0

# Format of trapezoid gradients:
# id amplitude rise flat fall delay
# ..      Hz/m   us   us   us    us
[TRAP]
 1  1.02192e+06 500 2500 500   0
 2 -1.02192e+06 500 2500 500 8130
 3       554035 140 3450 140   0
 4  1.46484e+06 230    0 230 510
 5 -1.91249e+06 450   70 450   0
 6 -1.46484e+06 230  230 230   0
 7  1.46484e+06 230  230 230   0
 8  1.46484e+06 230    0 230   0
11       174081  30  910  30   0
15       884521 210  160 210   0
16  1.16177e+06 290    0 290   0
17       167464  20  930  20   0
18       921717 220  140 220   0

# Format of ADC events:
# id num dwell delay freqPPM phasePPM freq phase phase_id
# ..  ..    ns    us     ppm  rad/MHz   Hz   rad       ..
[ADC]
1 292 2000 53 0 0 0 0 1

# Format of extension lists:
# id type ref next_id
# next_id of 0 terminates the list
# Extension list is followed by extension specifications
[EXTENSIONS]
1 1 1 0
2 1 2 1
3 1 3 2
4 1 4 0
5 1 5 0
6 3 1 0
7 1 6 0
8 1 7 0
9 4 1 0
10 1 2 0
11 1 8 0
12 1 9 11
13 1 10 0
14 1 11 8
15 1 12 14
16 1 12 7
17 1 13 16
18 1 14 14
19 1 15 0
20 1 12 1
21 1 16 20
22 4 2 0
23 1 7 22
24 1 11 23
25 4 3 0
26 1 6 25
27 1 13 26
28 1 7 25
29 1 11 28
30 1 12 0
31 1 16 30
32 1 17 31
33 1 9 0
34 1 16 33
35 4 4 0

# Extension specification for digital output and input triggers:
# id type channel delay (us) duration (us)
extension TRIGGERS 3
1 1 1 0 100

# Extension specification for setting labels:
# id set labelstring
extension LABELSET 1
1 0 LIN
2 0 SLC
3 0 REP
4 1 NOISE
5 0 NOISE
6 1 REV
7 0 REV
8 1 NAV
9 37 LIN
10 0 REF
11 0 SEG
12 0 AVG
13 1 SEG
14 1 AVG
15 1 REF
16 0 NAV
17 1 LIN

# Extension specification for increasing labels:
# id inc labelstring
extension LABELINC 4
1 1 SLC
2 1 LIN
3 2 LIN
4 1 REP

# Sequence Shapes
[SHAPES]

shape_id 1
num_samples 292
0.0108817938
0.0631766374
0.0126499865
0.0134303304
0.00985940927
0.0142027248
0.0168251298
0.0196248922
0.0317479775
0.0316428999
0.0217563309
0.0251041846
0.0892922405
0.0703223225
0.0555737943
0.0184433668
0.0212030843
0.00773468081
0.0913800411
0.0706715218
0.0557788967
0.031342899
0.0166203563
0.0622497259
0.0987934735
0.0170432023
0.0257792251
0.0396799319
0.00739947696
0.0684096067
0.0402388333
0.0982835201
0.0402183985
0.0620671947
0.0154369805
0.0381345204
0.0161133972
0.0758112431
0.0871111122
0.0350776745
0.0685535709
0.0294148634
0.0530629304
0.0832423386
0.0597490192
0.0335311331
0.0299225023
0.0452592542
0.0422645653
0.0359606318
0.05583192
0.0742545366
0.0424334784
0.0429355789
0.0124872759
0.00244340161
0.0290185265
0.0317520583
0.0653690134
0.0956935924
0.0935730873
0.0457886334
0.0240478397
0.0763897944
0.0759327383
0.0740648065
0.0743688341
0.0105920417
0.068156043
0.0463260579
0.0212163205
0.00985187377
0.0823574474
0.0175009737
0.016356991
0.0665987216
0.0894389375
0.0516558208
0.0702702307
0.0153590377
0.095345707
0.0540884081
0.0679733898
0.0036563018
0.0809203851
0.0748618872
0.0120187018
0.0525045165
0.0325833629
0.054644944
0.0398880752
0.0415093387
0.018073776
0.025538674
0.00205357747
0.0923675613
0.0653699889
0.0932613572
0.0163512369
0.0921097256
0.0794657885
0.0577394197
0.0440035596
0.0257613737
0.0751946394
0.0228669482
0.00641870874
0.0767329511
0.0671202185
0.0715212515
0.0642060828
0.0419048294
0.0390762082
0.0816140103
0.0317427864
0.0814539773
0.0789073515
0.085226389
0.0505636618
0.0635661389
0.0950894415
0.0443964155
0.00600188198
0.0866749897
0.0631188734
0.0355073652
0.0997003272
0.0224171499
0.0652451073
0.0604990642
0.0387245431
0.0142187159
0.00251349857
0.0421112254
0.0184100289
0.0725775267
0.0370362687
0.0841560087
0.0734229691
0.0571025873
0.0176855058
0.0957384023
0.0265322036
0.0924580895
0.0223770405
0.0373563808
0.00875003496
0.0640116548
0.0180616888
0.00450511075
0.0723173479
0.0347437646
0.0660616825
0.0383868601
0.0627346502
0.00216498146
0.0910569989
0.0800558656
0.0745847484
0.0813112814
0.0383306319
0.0617279232
0.057549486
0.0530051705
0.0275069756
0.024862896
0.045163877
0.0227712826
0.0804449584
0.0986104242
0.00299919503
0.0535664191
0.00870772199
0.0802091441
0.098914491
0.00669462584
0.0939398362
0.00181775336
0.0683838614
0.078373648
0.0534137568
0.0885359451
0.0899004899
0.0625937626
0.0137868992
0.0217801594
0.0182141076
0.0041819864
0.0106941659
0.0616443485
0.093966101
0.0354455731
0.041062909
0.0984349417
0.0945579189
0.0676644678
0.0988302262
0.0766831387
0.0336699264
0.066238186
0.0244165287
0.0295507251
0.0680178371
0.052784683
0.0411593513
0.0602638218
0.0750520056
0.0583533174
0.0551792515
0.0583570619
0.051181992
0.0082592727
0.0719570135
0.0996156111
0.0354534305
0.0971258815
0.0346448761
0.0886543862
0.0454694865
0.0413427289
0.0217732068
0.0125654587
0.0308914594
0.0726104432
0.0782872073
0.0693787615
0.000980225226
0.0843213338
0.0922331998
0.0770954221
0.00426598559
0.0378186137
0.0704339624
0.0729513046
0.0224277071
0.0269054732
0.0673031165
0.0477492198
0.0623716413
0.0236444933
0.0177123754
0.0829643386
0.0766921668
0.0934478273
0.0107888905
0.0182227506
0.00990952824
0.0489763802
0.019324533
0.0895891574
0.00990896497
0.00441655718
0.0557295156
0.0772495067
0.0311940057
0.0178982479
0.0338955678
0.0210145637
0.051015252
0.0906364323
0.0628923939
0.0101533889
0.0390854753
0.00546166152
0.0501282913
0.0431721172
0.099756035
0.0811602581
0.048565167
0.0894447756
0.0137546595
0.0390004914
0.0927356225
0.0917493832
0.0713574012
0.0618337384
0.034328789
0.0936027327
0.0124774041
0.0730585362
0.0646477432
0.0833151986
0.0398282228
0.0749822209
0.083522051
0.0322460397
0.0552261617
0.0979129132
0.0549308533
0.033042361
0.0619471555
0.0360636571

shape_id 2
num_samples 8000
0.00011671692
0.000117246598
0.000117778547
0.000118312775
0.000118849292
0.000119388107
0.000119929229
0.000120472667
0.00012101843
0.000121566528
0.00012211697
0.000122669766
0.000123224925
0.000123782455
0.000124342368
0.000124904672
0.000125469377
0.000126036492
0.000126606027
0.000127177991
0.000127752395
0.000128329248
0.00012890856
0.00012949034
0.000130074599
0.000130661345
0.00013125059
0.000131842343
0.000132436615
0.000133033414
0.000133632751
0.000134234636
0.000134839079
0.000135446091
0.000136055681
0.000136667861
0.000137282639
0.000137900026
0.000138520034
0.000139142671
0.000139767949
0.000140395877
0.000141026467
0.000141659729
0.000142295674
0.000142934311
0.000143575652
0.000144219708
0.000144866489
0.000145516005
0.000146168268
0.000146823289
0.000147481078
0.000148141646
0.000148805005
0.000149471164
0.000150140136
0.000150811931
0.000151486561
0.000152164036
0.000152844368
0.000153527567
0.000154213646
0.000154902616
0.000155594487
0.000156289272
0.000156986981
0.000157687627
0.00015839122
0.000159097773
0.000159807296
0.000160519802
0.000161235302
0.000161953808
0.000162675332
0.000163399885
0.000164127479
0.000164858127
0.000165591839
0.000166328629
0.000167068508
0.000167811488
0.000168557582
0.000169306801
0.000170059157
0.000170814664
0.000171573332
0.000172335175
0.000173100205
0.000173868435
0.000174639875
0.00017541454
0.000176192442
0.000176973594
0.000177758007
0.000178545694
0.00017933667
0.000180130945
0.000180928533
0.000181729447
0.0001825337
0.000183341305
0.000184152274
0.000184966621
0.000185784359
0.0001866055
0.000187430059
0.000188258048
0.000189089481
0.00018992437
0.00019076273
0.000191604574
0.000192449915
0.000193298766
0.000194151142
0.000195007056
0.000195866521
0.000196729551
0.000197596161
0.000198466363
0.000199340172
0.000200217601
0.000201098665
0.000201983377
0.000202871752
0.000203763803
0.000204659545
0.000205558992
0.000206462158
0.000207369058
0.000208279705
0.000209194114
0.000210112301
0.000211034278
0.000211960061
0.000212889664
0.000213823102
0.00021476039
0.000215701542
0.000216646573
0.000217595498
0.000218548332
0.00021950509
0.000220465787
0.000221430438
0.000222399058
0.000223371661
0.000224348265
0.000225328883
0.000226313531
0.000227302224
0.000228294978
0.000229291809
0.000230292731
0.000231297761
0.000232306914
0.000233320205
0.000234337651
0.000235359268
0.00023638507
0.000237415075
0.000238449298
0.000239487755
0.000240530462
0.000241577435
0.000242628691
0.000243684245
0.000244744115
0.000245808316
0.000246876865
0.000247949779
0.000249027073
0.000250108764
0.00025119487
0.000252285407
0.000253380391
0.000254479839
0.000255583769
0.000256692197
0.00025780514
0.000258922615
0.00026004464
0.000261171231
0.000262302406
0.000263438182
0.000264578576
0.000265723606
0.000266873289
0.000268027644
0.000269186686
0.000270350434
0.000271518906
0.00027269212
0.000273870093
0.000275052843
0.000276240388
0.000277432746
0.000278629935
0.000279831974
0.00028103888
0.000282250672
0.000283467369
0.000284688987
0.000285915547
0.000287147065
0.000288383562
0.000289625056
0.000290871565
0.000292123107
0.000293379703
0.00029464137
0.000295908129
0.000297179997
0.000298456993
0.000299739138
0.00030102645
0.000302318948
0.000303616652
0.000304919581
0.000306227754
0.000307541192
0.000308859914
0.000310183939
0.000311513287
0.000312847978
0.000314188031
0.000315533468
0.000316884307
0.000318240569
0.000319602274
0.000320969442
0.000322342094
0.000323720249
0.000325103928
0.000326493152
0.000327887941
0.000329288316
0.000330694297
0.000332105906
0.000333523162
0.000334946087
0.000336374702
0.000337809028
0.000339249086
0.000340694897
0.000342146483
0.000343603864
0.000345067062
0.000346536098
0.000348010995
0.000349491773
0.000350978455
0.000352471061
0.000353969614
0.000355474136
0.000356984649
0.000358501175
0.000360023735
0.000361552352
0.000363087048
0.000364627846
0.000366174768
0.000367727836
0.000369287073
0.000370852502
0.000372424145
0.000374002025
0.000375586165
0.000377176588
0.000378773316
0.000380376374
0.000381985783
0.000383601568
0.000385223751
0.000386852356
0.000388487407
0.000390128926
0.000391776938
0.000393431466
0.000395092534
0.000396760165
0.000398434385
0.000400115216
0.000401802683
0.00040349681
0.000405197621
0.000406905141
0.000408619393
0.000410340403
0.000412068195
0.000413802794
0.000415544223
0.000417292509
0.000419047676
0.000420809748
0.000422578752
0.000424354712
0.000426137653
0.0004279276
0.00042972458
0.000431528616
0.000433339736
0.000435157964
0.000436983327
0.000438815849
0.000440655558
0.000442502478
0.000444356636
0.000446218058
0.000448086771
0.0004499628
0.000451846171
0.000453736912
0.000455635049
0.000457540609
0.000459453617
0.000461374102
0.000463302089
0.000465237607
0.000467180681
0.00046913134
0.00047108961
0.000473055518
0.000475029093
0.000477010361
0.000478999351
0.000480996089
0.000483000604
0.000485012924
0.000487033076
0.000489061088
0.000491096989
0.000493140807
0.00049519257
0.000497252307
0.000499320045
0.000501395815
0.000503479643
0.00050557156
0.000507671594
0.000509779773
0.000511896128
0.000514020686
0.000516153478
0.000518294532
0.000520443879
0.000522601547
0.000524767566
0.000526941966
0.000529124776
0.000531316027
0.000533515749
0.000535723971
0.000537940724
0.000540166038
0.000542399943
0.00054464247
0.00054689365
0.000549153512
0.000551422088
0.00055369941
0.000555985506
0.000558280409
0.000560584151
0.000562896761
0.000565218271
0.000567548713
0.000569888119
0.00057223652
0.000574593947
0.000576960433
0.00057933601
0.000581720709
0.000584114562
0.000586517603
0.000588929863
0.000591351374
0.00059378217
0.000596222283
0.000598671745
0.00060113059
0.00060359885
0.000606076559
0.00060856375
0.000611060455
0.000613566709
0.000616082544
0.000618607995
0.000621143095
0.000623687878
0.000626242378
0.000628806628
0.000631380663
0.000633964518
0.000636558225
0.000639161821
0.000641775339
0.000644398813
0.00064703228
0.000649675773
0.000652329328
0.000654992979
0.000657666762
0.000660350713
0.000663044866
0.000665749256
0.000668463921
0.000671188895
0.000673924214
0.000676669914
0.000679426032
0.000682192603
0.000684969663
0.00068775725
0.000690555399
0.000693364148
0.000696183533
0.00069901359
0.000701854357
0.000704705871
0.000707568169
0.000710441289
0.000713325267
0.000716220142
0.000719125951
0.000722042731
0.000724970521
0.000727909359
0.000730859282
0.000733820329
0.000736792539
0.00073977595
0.0007427706
0.000745776528
0.000748793772
0.000751822373
0.000754862369
0.000757913798
0.000760976702
0.000764051117
0.000767137086
0.000770234646
0.000773343838
0.000776464701
0.000779597277
0.000782741604
0.000785897723
0.000789065675
0.000792245499
0.000795437238
0.00079864093
0.000801856618
0.000805084342
0.000808324144
0.000811576064
0.000814840144
0.000818116426
0.000821404951
0.00082470576
0.000828018897
0.000831344402
0.000834682318
0.000838032687
0.000841395552
0.000844770954
0.000848158938
0.000851559545
0.000854972818
0.0008583988
0.000861837535
0.000865289066
0.000868753436
0.000872230689
0.000875720869
0.000879224018
0.000882740182
0.000886269404
0.000889811728
0.000893367199
0.000896935862
0.00090051776
0.000904112939
0.000907721443
0.000911343318
0.000914978608
0.000918627359
0.000922289616
0.000925965425
0.000929654832
0.000933357881
0.00093707462
0.000940805094
0.00094454935
0.000948307433
0.000952079391
0.00095586527
0.000959665116
0.000963478977
0.0009673069
0.000971148931
0.000975005119
0.00097887551
0.000982760152
0.000986659094
0.000990572382
0.000994500065
0.000998442191
0.00100239881
0.00100636997
0.00101035571
0.00101435609
0.00101837116
0.00102240097
0.00102644555
0.00103050498
0.00103457928
0.00103866852
0.00104277274
0.00104689199
0.00105102632
0.00105517579
0.00105934043
0.00106352032
0.00106771548
0.00107192598
0.00107615187
0.00108039319
0.00108465
0.00108892235
0.00109321029
0.00109751387
0.00110183315
0.00110616817
0.00111051899
0.00111488566
0.00111926823
0.00112366676
0.0011280813
0.0011325119
0.00113695861
0.00114142149
0.00114590059
0.00115039596
0.00115490767
0.00115943575
0.00116398027
0.00116854128
0.00117311883
0.00117771298
0.00118232379
0.0011869513
0.00119159557
0.00119625666
0.00120093463
0.00120562952
0.00121034139
0.00121507031
0.00121981632
0.00122457948
0.00122935985
0.00123415748
0.00123897244
0.00124380477
0.00124865453
0.00125352178
0.00125840658
0.00126330899
0.00126822906
0.00127316685
0.00127812241
0.00128309582
0.00128808711
0.00129309636
0.00129812362
0.00130316895
0.00130823241
0.00131331405
0.00131841394
0.00132353214
0.0013286687
0.00133382368
0.00133899715
0.00134418917
0.00134939978
0.00135462907
0.00135987707
0.00136514387
0.00137042951
0.00137573405
0.00138105757
0.00138640012
0.00139176175
0.00139714255
0.00140254255
0.00140796183
0.00141340046
0.00141885848
0.00142433597
0.00142983298
0.00143534959
0.00144088585
0.00144644182
0.00145201757
0.00145761317
0.00146322867
0.00146886414
0.00147451965
0.00148019526
0.00148589103
0.00149160703
0.00149734332
0.00150309998
0.00150887705
0.00151467461
0.00152049273
0.00152633147
0.00153219089
0.00153807107
0.00154397207
0.00154989395
0.00155583678
0.00156180063
0.00156778556
0.00157379165
0.00157981896
0.00158586756
0.00159193751
0.00159802889
0.00160414175
0.00161027618
0.00161643224
0.00162260999
0.00162880951
0.00163503086
0.00164127412
0.00164753936
0.00165382663
0.00166013602
0.0016664676
0.00167282143
0.00167919758
0.00168559613
0.00169201714
0.00169846069
0.00170492685
0.00171141568
0.00171792727
0.00172446168
0.00173101899
0.00173759926
0.00174420257
0.001750829
0.0017574786
0.00176415147
0.00177084767
0.00177756727
0.00178431035
0.00179107698
0.00179786723
0.00180468119
0.00181151891
0.00181838049
0.00182526599
0.00183217549
0.00183910906
0.00184606678
0.00185304873
0.00186005497
0.0018670856
0.00187414067
0.00188122027
0.00188832448
0.00189545337
0.00190260702
0.0019097855
0.0019169889
0.00192421729
0.00193147075
0.00193874936
0.00194605319
0.00195338233
0.00196073684
0.00196811682
