# Pulseq sequence file
# Created by MATLAB mr toolbox

[VERSION]
major 1
minor 5
revision 0

[DEFINITIONS]
AccelerationFactorPE 2 
AdcRasterTime 1e-07 
BlockDurationRaster 1e-05 
FOV 0.22 0.22 0.0045 
FirstFourierLine 1 
FirstRefLine 22 
GradientRasterTime 1e-05 
Name epi 
PhaseEncodingLine_DIFF 146 
PhaseResolution 1 
RadiofrequencyRasterTime 1e-06 
ReadoutOversamplingFactor 2 
ReceiverGainHigh 1 
RefLinesPE 30 
SliceGap 0 
SlicePositions -0.0015 0.0015 0 
SliceThickness 0.0015 
TargetGriddedSamples 292 
TotalDuration 27.23621 
TrapezoidGriddingParameters 0.00023 0.00023 0.00023 5.3e-05 0.000584 
kSpaceCenterLine 37 

# Format of blocks:
# NUM DUR RF  GX  GY  GZ  ADC  EXT
[BLOCKS]
    1   0   0   0   0   0  0  3
    2  65   0   0   0   0  1  4
    3   0   0   0   0   0  0  5
    4   0   0   0   0   0  0  6
    5 350   0   1   1   1  0  0
    6 1163   1   2   2   2  0  0
    7 373   2   0   0   3  0  7
    8  97   0   4   0   5  0  9
    9   0   0   0   0   0  0 10
   10   0   0   0   0   0  0 13
   11  69   0   6   0   0  1  0
   12   0   0   0   0   0  0 16
   13  69   0   7   0   0  1  0
   14   0   0   0   0   0  0 17
   15  69   0   6   0   0  1  0
   16  46   0   8   0   0  0  9
   17 1747   0   0   0   0  0  0
   18 707   3  10  10   9  0  0
   19 911   0   0   0   0  0  0
   20   0   0   0   0   0  0 18
   21  97   0   4  11   0  0 20
   22  69   0   6  12   0  0 23
   23  69   0   7  13   0  0 25
   24  69   0   6  13   0  0 23
   25  69   0   7  13   0  1 25
   26  69   0   6  13   0  1 23
   27  69   0   7  13   0  1 25
   28  69   0   6  13   0  1 23
   29  69   0   7  13   0  1 25
   30  69   0   6  13   0  1 23
   31  69   0   7  13   0  1 25
   32  69   0   6  13   0  1 23
   33  69   0   7  13   0  1 25
   34  69   0   6  13   0  1 23
   35  69   0   7  13   0  1 25
   36  69   0   6  13   0  1 23
   37  69   0   7  13   0  1 25
   38  69   0   6  13   0  1 23
   39  69   0   7  13   0  1 25
   40  69   0   6  13   0  1 23
   41  69   0   7  13   0  1 25
   42  69   0   6  13   0  1 23
   43  69   0   7  13   0  1 25
   44  69   0   6  13   0  1 23
   45  69   0   7  13   0  1 25
   46  69   0   6  13   0  1 23
   47  69   0   7  13   0  1 25
   48  69   0   6  13   0  1 23
   49  69   0   7  13   0  1 25
   50  69   0   6  13   0  1 23
   51  69   0   7  13   0  1 25
   52  69   0   6  13   0  1 23
   53  69   0   7  13   0  1 25
   54  69   0   6  13   0  1 23
   55  69   0   7  13   0  0 25
   56  69   0   6  13   0  0 23
   57  69   0   7  13   0  0 25
   58  69   0   6  13   0  0 23
   59  69   0   7  14   0  0 25
   60  58   0  16  15   0  0  0
   61 4434   0   0   0   0  0  0
   62   0   0   0   0   0  0 26
   63 350   0   1   1   1  0  0
   64 1163   1   2   2   2  0  0
   65 373   4   0   0   3  0  7
   66  97   0   4   0   5  0  9
   67   0   0   0   0   0  0 10
   68   0   0   0   0   0  0 13
   69  69   0   6   0   0  1  0
   70   0   0   0   0   0  0 16
   71  69   0   7   0   0  1  0
   72   0   0   0   0   0  0 17
   73  69   0   6   0   0  1  0
   74  46   0   8   0   0  0  9
   75 1747   0   0   0   0  0  0
   76 707   5  10  10   9  0  0
   77 911   0   0   0   0  0  0
   78   0   0   0   0   0  0 18
   79  97   0   4  11   0  0 20
   80  69   0   6  12   0  0 23
   81  69   0   7  13   0  0 25
   82  69   0   6  13   0  0 23
   83  69   0   7  13   0  1 25
   84  69   0   6  13   0  1 23
   85  69   0   7  13   0  1 25
   86  69   0   6  13   0  1 23
   87  69   0   7  13   0  1 25
   88  69   0   6  13   0  1 23
   89  69   0   7  13   0  1 25
   90  69   0   6  13   0  1 23
   91  69   0   7  13   0  1 25
   92  69   0   6  13   0  1 23
   93  69   0   7  13   0  1 25
   94  69   0   6  13   0  1 23
   95  69   0   7  13   0  1 25
   96  69   0   6  13   0  1 23
   97  69   0   7  13   0  1 25
   98  69   0   6  13   0  1 23
   99  69   0   7  13   0  1 25
  100  69   0   6  13   0  1 23
  101  69   0   7  13   0  1 25
  102  69   0   6  13   0  1 23
  103  69   0   7  13   0  1 25
  104  69   0   6  13   0  1 23
  105  69   0   7  13   0  1 25
  106  69   0   6  13   0  1 23
  107  69   0   7  13   0  1 25
  108  69   0   6  13   0  1 23
  109  69   0   7  13   0  1 25
  110  69   0   6  13   0  1 23
  111  69   0   7  13   0  1 25
  112  69   0   6  13   0  1 23
  113  69   0   7  13   0  0 25
  114  69   0   6  13   0  0 23
  115  69   0   7  13   0  0 25
  116  69   0   6  13   0  0 23
  117  69   0   7  14   0  0 25
  118  58   0  16  15   0  0  0
  119 4434   0   0   0   0  0  0
  120   0   0   0   0   0  0 26
  121 350   0   1   1   1  0  0
  122 1163   1   2   2   2  0  0
  123 373   6   0   0   3  0  7
  124  97   0   4   0   5  0  9
  125   0   0   0   0   0  0 10
  126   0   0   0   0   0  0 13
  127  69   0   6   0   0  1  0
  128   0   0   0   0   0  0 16
  129  69   0   7   0   0  1  0
  130   0   0   0   0   0  0 17
  131  69   0   6   0   0  1  0
  132  46   0   8   0   0  0  9
  133 1747   0   0   0   0  0  0
  134 707   7  10  10   9  0  0
  135 911   0   0   0   0  0  0
  136   0   0   0   0   0  0 18
  137  97   0   4  11   0  0 20
  138  69   0   6  12   0  0 23
  139  69   0   7  13   0  0 25
  140  69   0   6  13   0  0 23
  141  69   0   7  13   0  1 25
  142  69   0   6  13   0  1 23
  143  69   0   7  13   0  1 25
  144  69   0   6  13   0  1 23
  145  69   0   7  13   0  1 25
  146  69   0   6  13   0  1 23
  147  69   0   7  13   0  1 25
  148  69   0   6  13   0  1 23
  149  69   0   7  13   0  1 25
  150  69   0   6  13   0  1 23
  151  69   0   7  13   0  1 25
  152  69   0   6  13   0  1 23
  153  69   0   7  13   0  1 25
  154  69   0   6  13   0  1 23
  155  69   0   7  13   0  1 25
  156  69   0   6  13   0  1 23
  157  69   0   7  13   0  1 25
  158  69   0   6  13   0  1 23
  159  69   0   7  13   0  1 25
  160  69   0   6  13   0  1 23
  161  69   0   7  13   0  1 25
  162  69   0   6  13   0  1 23
  163  69   0   7  13   0  1 25
  164  69   0   6  13   0  1 23
  165  69   0   7  13   0  1 25
  166  69   0   6  13   0  1 23
  167  69   0   7  13   0  1 25
  168  69   0   6  13   0  1 23
  169  69   0   7  13   0  1 25
  170  69   0   6  13   0  1 23
  171  69   0   7  13   0  0 25
  172  69   0   6  13   0  0 23
  173  69   0   7  13   0  0 25
  174  69   0   6  13   0  0 23
  175  69   0   7  14   0  0 25
  176  58   0  16  15   0  0  0
  177 4434   0   0   0   0  0  0
  178   0   0   0   0   0  0 26
  179   0   0   0   0   0  0 10
  180   0   0   0   0   0  0  6
  181 350   0   1   1   1  0  0
  182 1163   1   2   2   2  0  0
  183 373   2   0   0   3  0  7
  184  97   0   0   0   5  0 28
  185 2000   0  17  18  19  0  0
  186 707   3  10  10   9  0  0
  187 911   0  20  21  22  0  0
  188  97   0   4  23   0  0 30
  189  69   0   6  24   0  1 23
  190  69   0   7  25   0  1 33
  191  69   0   6  25   0  1 35
  192  69   0   7  25   0  1 33
  193  69   0   6  25   0  1 35
  194  69   0   7  25   0  1 33
  195  69   0   6  25   0  1 35
  196  69   0   7  25   0  1 33
  197  69   0   6  25   0  1 35
  198  69   0   7  25   0  1 33
  199  69   0   6  25   0  1 35
  200  69   0   7  25   0  1 33
  201  69   0   6  25   0  1 35
  202  69   0   7  25   0  1 33
  203  69   0   6  25   0  1 35
  204  69   0   7  25   0  1 33
  205  69   0   6  25   0  1 35
  206  69   0   7  25   0  1 33
  207  69   0   6  25   0  1 35
  208  69   0   7  25   0  1 33
  209  69   0   6  25   0  1 35
  210  69   0   7  25   0  1 33
  211  69   0   6  25   0  1 35
  212  69   0   7  25   0  1 33
  213  69   0   6  25   0  1 35
  214  69   0   7  25   0  1 33
  215  69   0   6  25   0  1 35
  216  69   0   7  25   0  1 33
  217  69   0   6  25   0  1 35
  218  69   0   7  25   0  1 33
  219  69   0   6  25   0  1 35
  220  69   0   7  25   0  1 33
  221  69   0   6  25   0  1 35
  222  69   0   7  25   0  1 33
  223  69   0   6  25   0  1 35
  224  69   0   7  25   0  1 33
  225  69   0   6  25   0  1 35
  226  69   0   7  25   0  1 33
  227  69   0   6  25   0  1 35
  228  69   0   7  25   0  1 33
  229  69   0   6  25   0  1 35
  230  69   0   7  25   0  1 33
  231  69   0   6  25   0  1 35
  232  69   0   7  25   0  1 33
  233  69   0   6  25   0  1 35
  234  69   0   7  25   0  1 33
  235  69   0   6  25   0  1 35
  236  69   0   7  25   0  1 33
  237  69   0   6  25   0  1 35
  238  69   0   7  25   0  1 33
  239  69   0   6  25   0  1 35
  240  69   0   7  25   0  1 33
  241  69   0   6  25   0  1 35
  242  69   0   7  25   0  1 33
  243  69   0   6  26   0  1 35
  244  58   0  27  28   0  0  0
  245 4434   0   0   0   0  0  0
  246   0   0   0   0   0  0 26
  247 350   0   1   1   1  0  0
  248 1163   1   2   2   2  0  0
  249 373   4   0   0   3  0  7
  250  97   0   0   0   5  0 28
  251 2000   0  17  18  19  0  0
  252 707   5  10  10   9  0  0
  253 911   0  20  21  22  0  0
  254  97   0   4  23   0  0 30
  255  69   0   6  24   0  1 23
  256  69   0   7  25   0  1 33
  257  69   0   6  25   0  1 35
  258  69   0   7  25   0  1 33
  259  69   0   6  25   0  1 35
  260  69   0   7  25   0  1 33
  261  69   0   6  25   0  1 35
  262  69   0   7  25   0  1 33
  263  69   0   6  25   0  1 35
  264  69   0   7  25   0  1 33
  265  69   0   6  25   0  1 35
  266  69   0   7  25   0  1 33
  267  69   0   6  25   0  1 35
  268  69   0   7  25   0  1 33
  269  69   0   6  25   0  1 35
  270  69   0   7  25   0  1 33
  271  69   0   6  25   0  1 35
  272  69   0   7  25   0  1 33
  273  69   0   6  25   0  1 35
  274  69   0   7  25   0  1 33
  275  69   0   6  25   0  1 35
  276  69   0   7  25   0  1 33
  277  69   0   6  25   0  1 35
  278  69   0   7  25   0  1 33
  279  69   0   6  25   0  1 35
  280  69   0   7  25   0  1 33
  281  69   0   6  25   0  1 35
  282  69   0   7  25   0  1 33
  283  69   0   6  25   0  1 35
  284  69   0   7  25   0  1 33
  285  69   0   6  25   0  1 35
  286  69   0   7  25   0  1 33
  287  69   0   6  25   0  1 35
  288  69   0   7  25   0  1 33
  289  69   0   6  25   0  1 35
  290  69   0   7  25   0  1 33
[RF]
1      129.712 2 3 0 4000 100 -3.45 0.086708 0 0 s
2       292.11 4 5 6 1725 140 0 0 -831.053 9.00736 e
3      845.482 7 8 9 2880.75 660 0 0 764.895 -15.4156 r
4       292.11 4 5 6 1725 140 0 0 831.053 -9.00736 e
5      845.482 7 8 9 2880.75 660 0 0 -764.895 12.274 r
6       292.11 4 5 6 1725 140 0 0 0 -0 e
7      845.482 7 8 9 2880.75 660 0 0 -0 -1.5708 r

# Format of arbitrary gradients:
#   time_shape_id of 0 means default timing (stepping with grad_raster starting at 1/2 of grad_raster)
# id amplitude first last amp_shape_id time_shape_id delay
# ..      Hz/m  Hz/m Hz/m        ..         ..          us
[GRADIENTS]
9 -1.63491e+06           -0           -0 10 11 0
10 -1.63491e+06           -0           -0 12 11 0
12      -113636            0      -113636 13 14 660
13      -113636      -113636      -113636 15 16 0
14      -113636      -113636            0 17 18 0
17      -731610           -0           -0 19 0 0
18       686979            0            0 19 0 0
19  7.95373e+06            0            0 19 0 0
20      -734320           -0           -0 20 0 0
21       689523            0            0 20 0 0
22  7.98319e+06            0            0 20 0 0
24      -181818            0      -181818 13 21 650
25      -181818      -181818      -181818 15 22 0
26      -181818      -181818            0 17 23 0
29  1.06254e+06            0            0 19 0 0
30  1.38327e+06            0            0 19 0 0
31  7.82475e+06            0            0 19 0 0
32  1.06647e+06            0            0 20 0 0
33   1.3884e+06            0            0 20 0 0
34  7.85373e+06            0            0 20 0 0
35  1.88778e+06            0            0 19 0 0
36 -1.18699e+06           -0           -0 19 0 0
37  7.70042e+06            0            0 19 0 0
38  1.89477e+06            0            0 20 0 0
39 -1.19139e+06           -0           -0 20 0 0
40  7.72894e+06            0            0 20 0 0
41 -1.20145e+06           -0           -0 19 0 0
42 -2.32103e+06           -0           -0 19 0 0
43  7.57881e+06            0            0 19 0 0
44  -1.2059e+06           -0           -0 20 0 0
45 -2.32963e+06           -0           -0 20 0 0
46  7.60688e+06            0            0 20 0 0
47 -2.73171e+06           -0           -0 19 0 0
48  1.13919e+06            0            0 19 0 0
49  7.45044e+06            0            0 19 0 0
50 -2.74183e+06           -0           -0 20 0 0
51  1.14341e+06            0            0 20 0 0
52  7.47803e+06            0            0 20 0 0
53       984795            0            0 19 0 0
54  3.12206e+06            0            0 19 0 0
55  7.31792e+06            0            0 19 0 0
56       988442            0            0 20 0 0
57  3.13362e+06            0            0 20 0 0
58  7.34503e+06            0            0 20 0 0
59  3.45878e+06            0            0 19 0 0
60      -750749           -0           -0 19 0 0
61  7.19321e+06            0            0 19 0 0
62  3.47159e+06            0            0 20 0 0
63      -753529           -0           -0 20 0 0
64  7.21985e+06            0            0 20 0 0
65      -477935           -0           -0 19 0 0
66 -3.74045e+06           -0           -0 19 0 0
67  7.07458e+06            0            0 19 0 0
68      -479705           -0           -0 20 0 0
69  -3.7543e+06           -0           -0 20 0 0
70  7.10078e+06            0            0 20 0 0
71 -3.99572e+06           -0           -0 19 0 0
72       173192            0            0 19 0 0
73   6.9479e+06            0            0 19 0 0
74 -4.01052e+06           -0           -0 20 0 0
75       173833            0            0 20 0 0
76  6.97363e+06            0            0 20 0 0
77      -187339           -0           -0 19 0 0
78  4.22101e+06            0            0 19 0 0
79  6.81301e+06            0            0 19 0 0
80      -188033           -0           -0 20 0 0
81  4.23664e+06            0            0 20 0 0
82  6.83824e+06            0            0 20 0 0
83  4.38348e+06            0            0 19 0 0
84       596158            0            0 19 0 0
85  6.68572e+06            0            0 19 0 0
86  4.39971e+06            0            0 20 0 0
87       598366            0            0 20 0 0
88  6.71048e+06            0            0 20 0 0
89  1.01709e+06            0            0 19 0 0
90 -4.48174e+06           -0           -0 19 0 0
91  6.56876e+06            0            0 19 0 0
92  1.02086e+06            0            0 20 0 0
93 -4.49834e+06           -0           -0 20 0 0
94  6.59309e+06            0            0 20 0 0
95 -4.54319e+06           -0           -0 19 0 0
96 -1.44458e+06           -0           -0 19 0 0
97  6.44528e+06            0            0 19 0 0
98 -4.56002e+06           -0           -0 20 0 0
99 -1.44993e+06           -0           -0 20 0 0
100  6.46916e+06            0            0 20 0 0
101 -1.90093e+06           -0           -0 19 0 0
102  4.56569e+06            0            0 19 0 0
103  6.30952e+06            0            0 19 0 0
104 -1.90797e+06           -0           -0 20 0 0
105   4.5826e+06            0            0 20 0 0
106  6.33289e+06            0            0 20 0 0
107  4.52041e+06            0            0 19 0 0
108  2.37903e+06            0            0 19 0 0
109  6.17861e+06            0            0 19 0 0
110  4.53715e+06            0            0 20 0 0
111  2.38784e+06            0            0 20 0 0
112  6.20149e+06            0            0 20 0 0
113  2.84522e+06            0            0 19 0 0
114 -4.40794e+06           -0           -0 19 0 0
115  6.06167e+06            0            0 19 0 0
116  2.85576e+06            0            0 20 0 0
117 -4.42427e+06           -0           -0 20 0 0
118  6.08412e+06            0            0 20 0 0
119 -4.25553e+06           -0           -0 19 0 0
120 -3.29425e+06           -0           -0 19 0 0
121  5.94201e+06            0            0 19 0 0
122 -4.27129e+06           -0           -0 20 0 0
123 -3.30645e+06           -0           -0 20 0 0
124  5.96401e+06            0            0 20 0 0
125 -3.74657e+06           -0           -0 19 0 0
126  4.06323e+06            0            0 19 0 0
127   5.8071e+06            0            0 19 0 0
128 -3.76045e+06           -0           -0 20 0 0
129  4.07828e+06            0            0 20 0 0
130  5.82861e+06            0            0 20 0 0
131  3.80659e+06            0            0 19 0 0
132  4.19557e+06            0            0 19 0 0
133   5.6724e+06            0            0 19 0 0
134  3.82069e+06            0            0 20 0 0
135  4.21111e+06            0            0 20 0 0
136  5.69341e+06            0            0 20 0 0
137  4.61045e+06            0            0 19 0 0
138 -3.48842e+06           -0           -0 19 0 0
139  5.55372e+06            0            0 19 0 0
140  4.62752e+06            0            0 20 0 0
141 -3.50134e+06           -0           -0 20 0 0
142  5.57429e+06            0            0 20 0 0
143 -3.13587e+06           -0           -0 19 0 0
144 -4.98673e+06           -0           -0 19 0 0
145  5.43764e+06            0            0 19 0 0
146 -3.14748e+06           -0           -0 20 0 0
147  -5.0052e+06           -0           -0 20 0 0
148  5.45778e+06            0            0 20 0 0
149 -5.34362e+06           -0           -0 19 0 0
150  2.75109e+06            0            0 19 0 0
151  5.30531e+06            0            0 19 0 0
152 -5.36341e+06           -0           -0 20 0 0
153  2.76128e+06            0            0 20 0 0
154  5.32496e+06            0            0 20 0 0
155  2.31386e+06            0            0 19 0 0
156  5.67564e+06            0            0 19 0 0
157  5.16742e+06            0            0 19 0 0
158  2.32243e+06            0            0 20 0 0
159  5.69666e+06            0            0 20 0 0
160  5.18656e+06            0            0 20 0 0
161   5.9555e+06            0            0 19 0 0
162 -1.82888e+06           -0           -0 19 0 0
163  5.04542e+06            0            0 19 0 0
164  5.97756e+06            0            0 20 0 0
165 -1.83565e+06           -0           -0 20 0 0
166  5.06411e+06            0            0 20 0 0
167 -1.32287e+06           -0           -0 19 0 0
168  -6.1802e+06           -0           -0 19 0 0
169  4.93196e+06            0            0 19 0 0
170 -1.32777e+06           -0           -0 20 0 0
171 -6.20309e+06           -0           -0 20 0 0
172  4.95023e+06            0            0 20 0 0
173  -6.3683e+06           -0           -0 19 0 0
174       799608            0            0 19 0 0
175  4.80359e+06            0            0 19 0 0
176 -6.39189e+06           -0           -0 20 0 0
177       802569            0            0 20 0 0
178  4.82138e+06            0            0 20 0 0
179       242572            0            0 19 0 0
180  6.51609e+06            0            0 19 0 0
181  4.66378e+06            0            0 19 0 0
182       243471            0            0 20 0 0
183  6.54022e+06            0            0 20 0 0
184  4.68105e+06            0            0 20 0 0
185  6.60035e+06            0            0 19 0 0
186       342220            0            0 19 0 0
187  4.53733e+06            0            0 19 0 0
188   6.6248e+06            0            0 20 0 0
189       343488            0            0 20 0 0
190  4.55413e+06            0            0 20 0 0
191       929165            0            0 19 0 0
192 -6.62007e+06           -0           -0 19 0 0
193  4.42497e+06            0            0 19 0 0
194       932606            0            0 20 0 0
195 -6.64459e+06           -0           -0 20 0 0
196  4.44136e+06            0            0 20 0 0
197 -6.59366e+06           -0           -0 19 0 0
198 -1.51355e+06           -0           -0 19 0 0
199  4.30138e+06            0            0 19 0 0
200 -6.61808e+06           -0           -0 20 0 0
201 -1.51915e+06           -0           -0 20 0 0
202  4.31731e+06            0            0 20 0 0
203 -2.10894e+06           -0           -0 19 0 0
204  6.51955e+06            0            0 19 0 0
205  4.16136e+06            0            0 19 0 0
206 -2.11675e+06           -0           -0 20 0 0
207  6.54369e+06            0            0 20 0 0
208  4.17678e+06            0            0 20 0 0
209  6.37893e+06            0            0 19 0 0
210  2.70882e+06            0            0 19 0 0
211  4.02997e+06            0            0 19 0 0
212  6.40255e+06            0            0 20 0 0
213  2.71885e+06            0            0 20 0 0
214   4.0449e+06            0            0 20 0 0
215   3.2895e+06            0            0 19 0 0
216 -6.17303e+06           -0           -0 19 0 0
217  3.91689e+06            0            0 19 0 0
218  3.30168e+06            0            0 20 0 0
219 -6.19589e+06           -0           -0 20 0 0
220   3.9314e+06            0            0 20 0 0
221 -5.92027e+06           -0           -0 19 0 0
222 -3.84617e+06           -0           -0 19 0 0
223  3.79821e+06            0            0 19 0 0
224  -5.9422e+06           -0           -0 20 0 0
225 -3.86042e+06           -0           -0 20 0 0
226  3.81228e+06            0            0 20 0 0
227 -4.39034e+06           -0           -0 19 0 0
228  5.62133e+06            0            0 19 0 0
229  3.65987e+06            0            0 19 0 0
230  -4.4066e+06           -0           -0 20 0 0
231  5.64215e+06            0            0 20 0 0
232  3.67342e+06            0            0 20 0 0
233  5.26184e+06            0            0 19 0 0
234  4.91581e+06            0            0 19 0 0
235  3.52378e+06            0            0 19 0 0
236  5.28133e+06            0            0 20 0 0
237  4.93401e+06            0            0 20 0 0
238  3.53683e+06            0            0 20 0 0
239  5.40167e+06            0            0 19 0 0
240 -4.84518e+06           -0           -0 19 0 0
241  3.40811e+06            0            0 19 0 0
242  5.42168e+06            0            0 20 0 0
243 -4.86313e+06           -0           -0 20 0 0
244  3.42073e+06            0            0 20 0 0
245 -4.38966e+06           -0           -0 19 0 0
246 -5.84391e+06           -0           -0 19 0 0
247  3.29373e+06            0            0 19 0 0
248 -4.40592e+06           -0           -0 20 0 0
249 -5.86556e+06           -0           -0 20 0 0
250  3.30593e+06            0            0 20 0 0
251 -6.25275e+06           -0           -0 19 0 0
252  3.89796e+06            0            0 19 0 0
253  3.15881e+06            0            0 19 0 0
254 -6.27591e+06           -0           -0 20 0 0
255   3.9124e+06            0            0 20 0 0
256  3.17051e+06            0            0 20 0 0
257  3.35982e+06            0            0 19 0 0
258  6.62317e+06            0            0 19 0 0
259  3.01899e+06            0            0 19 0 0
260  3.37227e+06            0            0 20 0 0
261   6.6477e+06            0            0 20 0 0
262  3.03018e+06            0            0 20 0 0
263   6.9378e+06            0            0 19 0 0
264 -2.78044e+06           -0           -0 19 0 0
265  2.89915e+06            0            0 19 0 0
266   6.9635e+06            0            0 20 0 0
267 -2.79074e+06           -0           -0 20 0 0
268  2.90989e+06            0            0 20 0 0
269 -2.17752e+06           -0           -0 19 0 0
270 -7.19414e+06           -0           -0 19 0 0
271  2.78779e+06            0            0 19 0 0
272 -2.18559e+06           -0           -0 20 0 0
273 -7.22079e+06           -0           -0 20 0 0
274  2.79811e+06            0            0 20 0 0
275 -7.40183e+06           -0           -0 19 0 0
276  1.55526e+06            0            0 19 0 0
277  2.65766e+06            0            0 19 0 0
278 -7.42925e+06           -0           -0 20 0 0
279  1.56102e+06            0            0 20 0 0
280   2.6675e+06            0            0 20 0 0
281       906917            0            0 19 0 0
282  7.55764e+06            0            0 19 0 0
283  2.51567e+06            0            0 19 0 0
284       910276            0            0 20 0 0
285  7.58564e+06            0            0 20 0 0
286  2.52499e+06            0            0 20 0 0
287  7.64834e+06            0            0 19 0 0
288      -238844           -0           -0 19 0 0
289  2.39058e+06            0            0 19 0 0
290  7.67667e+06            0            0 20 0 0
291      -239729           -0           -0 20 0 0
292  2.39943e+06            0            0 20 0 0
293       432533            0            0 19 0 0
294 -7.67343e+06           -0           -0 19 0 0
295  2.28045e+06            0            0 19 0 0
296       434135            0            0 20 0 0
297 -7.70185e+06           -0           -0 20 0 0
298  2.28889e+06            0            0 20 0 0
299 -7.64241e+06           -0           -0 19 0 0
300 -1.10227e+06           -0           -0 19 0 0
301  2.15585e+06            0            0 19 0 0
302 -7.67071e+06           -0           -0 20 0 0
303 -1.10635e+06           -0           -0 20 0 0
304  2.16384e+06            0            0 20 0 0
305 -1.77431e+06           -0           -0 19 0 0
306  7.55422e+06            0            0 19 0 0
307  2.01363e+06            0            0 19 0 0
308 -1.78089e+06           -0           -0 20 0 0
309   7.5822e+06            0            0 20 0 0
310  2.02108e+06            0            0 20 0 0
311  7.40003e+06            0            0 19 0 0
312    2.442e+06            0            0 19 0 0
313  1.88291e+06            0            0 19 0 0
314  7.42743e+06            0            0 20 0 0
315  2.45104e+06            0            0 20 0 0
316  1.88988e+06            0            0 20 0 0
317    3.091e+06            0            0 19 0 0
318 -7.18157e+06           -0           -0 19 0 0
319  1.77199e+06            0            0 19 0 0
320  3.10244e+06            0            0 20 0 0
321 -7.20816e+06           -0           -0 20 0 0
322  1.77855e+06            0            0 20 0 0
323 -6.90832e+06           -0           -0 19 0 0
324 -3.71645e+06           -0           -0 19 0 0
325  1.65292e+06            0            0 19 0 0
326 -6.93391e+06           -0           -0 20 0 0
327 -3.73021e+06           -0           -0 20 0 0
328  1.65905e+06            0            0 20 0 0
329  -4.3204e+06           -0           -0 19 0 0
330  6.58146e+06            0            0 19 0 0
331   1.5125e+06            0            0 19 0 0
332  -4.3364e+06           -0           -0 20 0 0
333  6.60583e+06            0            0 20 0 0
334   1.5181e+06            0            0 20 0 0
335   6.1965e+06            0            0 19 0 0
336  4.89669e+06            0            0 19 0 0
337  1.37654e+06            0            0 19 0 0
338  6.21945e+06            0            0 20 0 0
339  4.91483e+06            0            0 20 0 0
340  1.38163e+06            0            0 20 0 0
341  5.43394e+06            0            0 19 0 0
342  -5.7573e+06           -0           -0 19 0 0
343  1.26285e+06            0            0 19 0 0
344  5.45407e+06            0            0 20 0 0
345 -5.77863e+06           -0           -0 20 0 0
346  1.26752e+06            0            0 20 0 0
347 -5.27314e+06           -0           -0 19 0 0
348 -5.92823e+06           -0           -0 19 0 0
349  1.14856e+06            0            0 19 0 0
350 -5.29267e+06           -0           -0 20 0 0
351 -5.95019e+06           -0           -0 20 0 0
352  1.15282e+06            0            0 20 0 0
353 -6.38047e+06           -0           -0 19 0 0
354   4.7471e+06            0            0 19 0 0
355  1.01179e+06            0            0 19 0 0
356  -6.4041e+06           -0           -0 20 0 0
357  4.76468e+06            0            0 20 0 0
358  1.01554e+06            0            0 20 0 0
359  4.17874e+06            0            0 19 0 0
360  6.78582e+06            0            0 19 0 0
361       871682            0            0 19 0 0
362  4.19421e+06            0            0 20 0 0
363  6.81096e+06            0            0 20 0 0
364       874910            0            0 20 0 0
365  7.13657e+06            0            0 19 0 0
366 -3.57359e+06           -0           -0 19 0 0
367       753575            0            0 19 0 0
368    7.163e+06            0            0 20 0 0
369 -3.58683e+06           -0           -0 20 0 0
370       756366            0            0 20 0 0
371 -2.94023e+06           -0           -0 19 0 0
372 -7.43042e+06           -0           -0 19 0 0
373       642653            0            0 19 0 0
374 -2.95112e+06           -0           -0 20 0 0
375 -7.45794e+06           -0           -0 20 0 0
376       645033            0            0 20 0 0
377 -7.66782e+06           -0           -0 19 0 0
378  2.28312e+06            0            0 19 0 0
379       510919            0            0 19 0 0
380 -7.69622e+06           -0           -0 20 0 0
381  2.29157e+06            0            0 20 0 0
382       512811            0            0 20 0 0
383  1.60521e+06            0            0 19 0 0
384  7.84581e+06            0            0 19 0 0
385       368351            0            0 19 0 0
386  1.61116e+06            0            0 20 0 0
387  7.87487e+06            0            0 20 0 0
388       369715            0            0 20 0 0
389  7.96087e+06            0            0 19 0 0
390      -913059           -0           -0 19 0 0
391       244745            0            0 19 0 0
392  7.99036e+06            0            0 20 0 0
393      -916441           -0           -0 20 0 0
394       245652            0            0 20 0 0
395      -213810           -0           -0 19 0 0
396 -8.01281e+06           -0           -0 19 0 0
397       135298            0            0 19 0 0
398      -214602           -0           -0 20 0 0
399 -8.04248e+06           -0           -0 20 0 0
400       135799            0            0 20 0 0
401 -8.00196e+06           -0           -0 19 0 0
402      -487458           -0           -0 19 0 0
