# Pulseq sequence file
# Created by MATLAB mr toolbox

[VERSION]
major 1
minor 5
revision 0

[DEFINITIONS]
AccelerationFactorPE 2 
AdcRasterTime 1e-07 
BlockDurationRaster 1e-05 
FOV 0.22 0.22 0.0015 
FirstFourierLine 1 
FirstRefLine 22 
GradientRasterTime 1e-05 
Name epi 
PhaseEncodingLine_DIFF 146 
PhaseResolution 1 
RadiofrequencyRasterTime 1e-06 
ReadoutOversamplingFactor 2 
ReceiverGainHigh 1 
RefLinesPE 30 
SliceGap 0 
SlicePositions 0 
SliceThickness 0.0015 
TargetGriddedSamples 292 
TotalDuration 196.60417 
TrapezoidGriddingParameters 0.00023 0.00023 0.00023 5.3e-05 0.000584 
kSpaceCenterLine 37 

# Format of blocks:
# NUM DUR RF  GX  GY  GZ  ADC  EXT
[BLOCKS]
   1   0   0   0   0   0  0  3
   2  65   0   0   0   0  1  4
   3   0   0   0   0   0  0  5
   4   0   0   0   0   0  0  6
   5 350   0   1   1   1  0  0
   6 1163   1   2   2   2  0  0
   7 373   2   0   0   3  0  7
   8  97   0   4   0   5  0  9
   9   0   0   0   0   0  0 10
  10   0   0   0   0   0  0 13
  11  69   0   6   0   0  1  0
  12   0   0   0   0   0  0 16
  13  69   0   7   0   0  1  0
  14   0   0   0   0   0  0 17
  15  69   0   6   0   0  1  0
  16  46   0   8   0   0  0  9
  17 1787   0   0   0   0  0  0
  18 707   3  10  10   9  0  0
  19 951   0   0   0   0  0  0
  20   0   0   0   0   0  0 18
  21  97   0   4  11   0  0 20
  22  69   0   6  12   0  0 23
  23  69   0   7  13   0  0 25
  24  69   0   6  13   0  0 23
  25  69   0   7  13   0  1 25
  26  69   0   6  13   0  1 23
  27  69   0   7  13   0  1 25
  28  69   0   6  13   0  1 23
  29  69   0   7  13   0  1 25
  30  69   0   6  13   0  1 23
  31  69   0   7  13   0  1 25
  32  69   0   6  13   0  1 23
  33  69   0   7  13   0  1 25
  34  69   0   6  13   0  1 23
  35  69   0   7  13   0  1 25
  36  69   0   6  13   0  1 23
  37  69   0   7  13   0  1 25
  38  69   0   6  13   0  1 23
  39  69   0   7  13   0  1 25
  40  69   0   6  13   0  1 23
  41  69   0   7  13   0  1 25
  42  69   0   6  13   0  1 23
  43  69   0   7  13   0  1 25
  44  69   0   6  13   0  1 23
  45  69   0   7  13   0  1 25
  46  69   0   6  13   0  1 23
  47  69   0   7  13   0  1 25
  48  69   0   6  13   0  1 23
  49  69   0   7  13   0  1 25
  50  69   0   6  13   0  1 23
  51  69   0   7  13   0  1 25
  52  69   0   6  13   0  1 23
  53  69   0   7  13   0  1 25
  54  69   0   6  13   0  1 23
  55  69   0   7  13   0  0 25
  56  69   0   6  13   0  0 23
  57  69   0   7  13   0  0 25
  58  69   0   6  13   0  0 23
  59  69   0   7  14   0  0 25
  60  58   0  16  15   0  0  0
  61 292854   0   0   0   0  0  0
  62   0   0   0   0   0  0 26
  63   0   0   0   0   0  0 10
  64   0   0   0   0   0  0  6
  65   0   0   0   0   0  0 27
  66 350   0   1   1   1  0  0
  67 1163   1   2   2   2  0  0
  68 373   2   0   0   3  0  7
  69  97   0   0   0   5  0 29
  70 2040   0  17  18  19  0  0
  71 707   3  10  10   9  0  0
  72 951   0  20  21  22  0  0
  73  97   0   4  23   0  0 31
  74  69   0   6  24   0  1 23
  75  69   0   7  25   0  1 34
  76  69   0   6  25   0  1 36
  77  69   0   7  25   0  1 34
  78  69   0   6  25   0  1 36
  79  69   0   7  25   0  1 34
  80  69   0   6  25   0  1 36
  81  69   0   7  25   0  1 34
  82  69   0   6  25   0  1 36
  83  69   0   7  25   0  1 34
  84  69   0   6  25   0  1 36
  85  69   0   7  25   0  1 34
  86  69   0   6  25   0  1 36
  87  69   0   7  25   0  1 34
  88  69   0   6  25   0  1 36
  89  69   0   7  25   0  1 34
  90  69   0   6  25   0  1 36
  91  69   0   7  25   0  1 34
  92  69   0   6  25   0  1 36
  93  69   0   7  25   0  1 34
  94  69   0   6  25   0  1 36
  95  69   0   7  25   0  1 34
  96  69   0   6  25   0  1 36
  97  69   0   7  25   0  1 34
  98  69   0   6  25   0  1 36
  99  69   0   7  25   0  1 34
 100  69   0   6  25   0  1 36
 101  69   0   7  25   0  1 34
 102  69   0   6  25   0  1 36
 103  69   0   7  25   0  1 34
 104  69   0   6  25   0  1 36
 105  69   0   7  25   0  1 34
 106  69   0   6  25   0  1 36
 107  69   0   7  25   0  1 34
 108  69   0   6  25   0  1 36
 109  69   0   7  25   0  1 34
 110  69   0   6  25   0  1 36
 111  69   0   7  25   0  1 34
 112  69   0   6  25   0  1 36
 113  69   0   7  25   0  1 34
 114  69   0   6  25   0  1 36
 115  69   0   7  25   0  1 34
 116  69   0   6  25   0  1 36
 117  69   0   7  25   0  1 34
 118  69   0   6  25   0  1 36
 119  69   0   7  25   0  1 34
 120  69   0   6  25   0  1 36
 121  69   0   7  25   0  1 34
 122  69   0   6  25   0  1 36
 123  69   0   7  25   0  1 34
 124  69   0   6  25   0  1 36
 125  69   0   7  25   0  1 34
 126  69   0   6  25   0  1 36
 127  69   0   7  25   0  1 34
 128  69   0   6  26   0  1 36
 129  58   0  27  28   0  0  0
 130 292854   0   0   0   0  0  0
 131   0   0   0   0   0  0  6
 132   0   0   0   0   0  0 27
 133 350   0   1   1   1  0  0
 134 1163   1   2   2   2  0  0
 135 373   2   0   0   3  0  7
 136  97   0   0   0   5  0 29
 137 2040   0  29  30  31  0  0
 138 707   3  10  10   9  0  0
 139 951   0  32  33  34  0  0
 140  97   0   4  23   0  0 31
 141  69   0   6  24   0  1 23
 142  69   0   7  25   0  1 34
 143  69   0   6  25   0  1 36
 144  69   0   7  25   0  1 34
 145  69   0   6  25   0  1 36
 146  69   0   7  25   0  1 34
 147  69   0   6  25   0  1 36
 148  69   0   7  25   0  1 34
 149  69   0   6  25   0  1 36
 150  69   0   7  25   0  1 34
 151  69   0   6  25   0  1 36
 152  69   0   7  25   0  1 34
 153  69   0   6  25   0  1 36
 154  69   0   7  25   0  1 34
 155  69   0   6  25   0  1 36
 156  69   0   7  25   0  1 34
 157  69   0   6  25   0  1 36
 158  69   0   7  25   0  1 34
 159  69   0   6  25   0  1 36
 160  69   0   7  25   0  1 34
 161  69   0   6  25   0  1 36
 162  69   0   7  25   0  1 34
 163  69   0   6  25   0  1 36
 164  69   0   7  25   0  1 34
 165  69   0   6  25   0  1 36
 166  69   0   7  25   0  1 34
 167  69   0   6  25   0  1 36
 168  69   0   7  25   0  1 34
 169  69   0   6  25   0  1 36
 170  69   0   7  25   0  1 34
 171  69   0   6  25   0  1 36
 172  69   0   7  25   0  1 34
 173  69   0   6  25   0  1 36
 174  69   0   7  25   0  1 34
 175  69   0   6  25   0  1 36
 176  69   0   7  25   0  1 34
 177  69   0   6  25   0  1 36
 178  69   0   7  25   0  1 34
 179  69   0   6  25   0  1 36
 180  69   0   7  25   0  1 34
 181  69   0   6  25   0  1 36
 182  69   0   7  25   0  1 34
 183  69   0   6  25   0  1 36
 184  69   0   7  25   0  1 34
 185  69   0   6  25   0  1 36
 186  69   0   7  25   0  1 34
 187  69   0   6  25   0  1 36
 188  69   0   7  25   0  1 34
 189  69   0   6  25   0  1 36
 190  69   0   7  25   0  1 34
 191  69   0   6  25   0  1 36
 192  69   0   7  25   0  1 34
 193  69   0   6  25   0  1 36
 194  69   0   7  25   0  1 34
 195  69   0   6  26   0  1 36
 196  58   0  27  28   0  0  0
 197 292854   0   0   0   0  0  0
 198   0   0   0   0   0  0  6
 199   0   0   0   0   0  0 37
 200 350   0   1   1   1  0  0
 201 1163   1   2   2   2  0  0
 202 373   2   0   0   3  0  7
 203  97   0   0   0   5  0 29
 204 2040   0  35  36  37  0  0
 205 707   3  10  10   9  0  0
 206 951   0  38  39  40  0  0
 207  97   0   4  23   0  0 31
 208  69   0   6  24   0  1 23
 209  69   0   7  25   0  1 34
 210  69   0   6  25   0  1 36
 211  69   0   7  25   0  1 34
 212  69   0   6  25   0  1 36
 213  69   0   7  25   0  1 34
 214  69   0   6  25   0  1 36
 215  69   0   7  25   0  1 34
 216  69   0   6  25   0  1 36
 217  69   0   7  25   0  1 34
 218  69   0   6  25   0  1 36
 219  69   0   7  25   0  1 34
 220  69   0   6  25   0  1 36
 221  69   0   7  25   0  1 34
 222  69   0   6  25   0  1 36
 223  69   0   7  25   0  1 34
 224  69   0   6  25   0  1 36
 225  69   0   7  25   0  1 34
 226  69   0   6  25   0  1 36
 227  69   0   7  25   0  1 34
 228  69   0   6  25   0  1 36
 229  69   0   7  25   0  1 34
 230  69   0   6  25   0  1 36
 231  69   0   7  25   0  1 34
 232  69   0   6  25   0  1 36
 233  69   0   7  25   0  1 34
 234  69   0   6  25   0  1 36
 235  69   0   7  25   0  1 34
 236  69   0   6  25   0  1 36
 237  69   0   7  25   0  1 34
 238  69   0   6  25   0  1 36
 239  69   0   7  25   0  1 34
 240  69   0   6  25   0  1 36
 241  69   0   7  25   0  1 34
 242  69   0   6  25   0  1 36
 243  69   0   7  25   0  1 34
 244  69   0   6  25   0  1 36
 245  69   0   7  25   0  1 34
 246  69   0   6  25   0  1 36
 247  69   0   7  25   0  1 34
 248  69   0   6  25   0  1 36
 249  69   0   7  25   0  1 34
 250  69   0   6  25   0  1 36
 251  69   0   7  25   0  1 34
 252  69   0   6  25   0  1 36
 253  69   0   7  25   0  1 34
 254  69   0   6  25   0  1 36
 255  69   0   7  25   0  1 34
 256  69   0   6  25   0  1 36
 257  69   0   7  25   0  1 34
 258  69   0   6  25   0  1 36
 259  69   0   7  25   0  1 34
 260  69   0   6  25   0  1 36
 261  69   0   7  25   0  1 34
 262  69   0   6  26   0  1 36
 263  58   0  27  28   0  0  0
 264 292854   0   0   0   0  0  0
 265   0   0   0   0   0  0  6
 266   0   0   0   0   0  0 38
 267 350   0   1   1   1  0  0
 268 1163   1   2   2   2  0  0
 269 373   2   0   0   3  0  7
 270  97   0   0   0   5  0 29
 271 2040   0  41  42  43  0  0
 272 707   3  10  10   9  0  0
 273 951   0  44  45  46  0  0
 274  97   0   4  23   0  0 31
 275  69   0   6  24   0  1 23
 276  69   0   7  25   0  1 34
 277  69   0   6  25   0  1 36
 278  69   0   7  25   0  1 34
 279  69   0   6  25   0  1 36
 280  69   0   7  25   0  1 34
 281  69   0   6  25   0  1 36
 282  69   0   7  25   0  1 34
 283  69   0   6  25   0  1 36
 284  69   0   7  25   0  1 34
 285  69   0   6  25   0  1 36
 286  69   0   7  25   0  1 34
 287  69   0   6  25   0  1 36
 288  69   0   7  25   0  1 34
 289  69   0   6  25   0  1 36
 290  69   0   7  25   0  1 34
 291  69   0   6  25   0  1 36
 292  69   0   7  25   0  1 34
 293  69   0   6  25   0  1 36
 294  69   0   7  25   0  1 34
 295  69   0   6  25   0  1 36
 296  69   0   7  25   0  1 34
 297  69   0   6  25   0  1 36
 298  69   0   7  25   0  1 34
 299  69   0   6  25   0  1 36
 300  69   0   7  25   0  1 34
[RF]
1      129.712 2 3 0 4000 100 -3.45 0.086708 0 0 s
2       292.11 4 5 6 1725 140 0 0 0 -0 e
3      845.482 7 8 9 2880.75 660 0 0 -0 -1.5708 r

# Format of arbitrary gradients:
#   time_shape_id of 0 means default timing (stepping with grad_raster starting at 1/2 of grad_raster)
# id amplitude first last amp_shape_id time_shape_id delay
# ..      Hz/m  Hz/m Hz/m        ..         ..          us
[GRADIENTS]
9 -1.63491e+06           -0           -0 10 11 0
10 -1.63491e+06           -0           -0 12 11 0
12      -113636            0      -113636 13 14 660
13      -113636      -113636      -113636 15 16 0
14      -113636      -113636            0 17 18 0
17      -726936           -0           -0 19 0 0
18       682590            0            0 19 0 0
19  7.90292e+06            0            0 19 0 0
20      -729898           -0           -0 20 0 0
21       685371            0            0 20 0 0
22  7.93512e+06            0            0 20 0 0
24      -181818            0      -181818 13 21 650
25      -181818      -181818      -181818 15 22 0
26      -181818      -181818            0 17 23 0
29  1.05575e+06            0            0 19 0 0
30  1.37444e+06            0            0 19 0 0
31  7.77476e+06            0            0 19 0 0
32  1.06005e+06            0            0 20 0 0
33  1.38004e+06            0            0 20 0 0
34  7.80644e+06            0            0 20 0 0
35  1.87572e+06            0            0 19 0 0
36 -1.17941e+06           -0           -0 19 0 0
37  7.65122e+06            0            0 19 0 0
38  1.88336e+06            0            0 20 0 0
39 -1.18422e+06           -0           -0 20 0 0
40   7.6824e+06            0            0 20 0 0
41 -1.19378e+06           -0           -0 19 0 0
42 -2.30621e+06           -0           -0 19 0 0
43   7.5304e+06            0            0 19 0 0
44 -1.19864e+06           -0           -0 20 0 0
45  -2.3156e+06           -0           -0 20 0 0
46  7.56108e+06            0            0 20 0 0
47 -2.71426e+06           -0           -0 19 0 0
48  1.13191e+06            0            0 19 0 0
49  7.40285e+06            0            0 19 0 0
50 -2.72532e+06           -0           -0 20 0 0
51  1.13652e+06            0            0 20 0 0
52  7.43301e+06            0            0 20 0 0
53       978504            0            0 19 0 0
54  3.10212e+06            0            0 19 0 0
55  7.27117e+06            0            0 19 0 0
56       982491            0            0 20 0 0
57  3.11476e+06            0            0 20 0 0
58   7.3008e+06            0            0 20 0 0
59  3.43668e+06            0            0 19 0 0
60      -745953           -0           -0 19 0 0
61  7.14726e+06            0            0 19 0 0
62  3.45069e+06            0            0 20 0 0
63      -748992           -0           -0 20 0 0
64  7.17638e+06            0            0 20 0 0
65      -474882           -0           -0 19 0 0
66 -3.71655e+06           -0           -0 19 0 0
67  7.02939e+06            0            0 19 0 0
68      -476817           -0           -0 20 0 0
69 -3.73169e+06           -0           -0 20 0 0
70  7.05803e+06            0            0 20 0 0
71  -3.9702e+06           -0           -0 19 0 0
72       172086            0            0 19 0 0
73  6.90351e+06            0            0 19 0 0
74 -3.98637e+06           -0           -0 20 0 0
75       172787            0            0 20 0 0
76  6.93164e+06            0            0 20 0 0
77      -186143           -0           -0 19 0 0
78  4.19404e+06            0            0 19 0 0
79  6.76948e+06            0            0 19 0 0
80      -186901           -0           -0 20 0 0
81  4.21113e+06            0            0 20 0 0
82  6.79707e+06            0            0 20 0 0
83  4.35547e+06            0            0 19 0 0
84       592349            0            0 19 0 0
85  6.64301e+06            0            0 19 0 0
86  4.37322e+06            0            0 20 0 0
87       594763            0            0 20 0 0
88  6.67008e+06            0            0 20 0 0
89  1.01059e+06            0            0 19 0 0
90 -4.45311e+06           -0           -0 19 0 0
91   6.5268e+06            0            0 19 0 0
92  1.01471e+06            0            0 20 0 0
93 -4.47126e+06           -0           -0 20 0 0
94  6.55339e+06            0            0 20 0 0
95 -4.51417e+06           -0           -0 19 0 0
96 -1.43535e+06           -0           -0 19 0 0
97  6.40411e+06            0            0 19 0 0
98 -4.53256e+06           -0           -0 20 0 0
99  -1.4412e+06           -0           -0 20 0 0
100   6.4302e+06            0            0 20 0 0
101 -1.88878e+06           -0           -0 19 0 0
102  4.53653e+06            0            0 19 0 0
103  6.26921e+06            0            0 19 0 0
104 -1.89648e+06           -0           -0 20 0 0
105  4.55501e+06            0            0 20 0 0
106  6.29475e+06            0            0 20 0 0
107  4.49153e+06            0            0 19 0 0
108  2.36383e+06            0            0 19 0 0
109  6.13914e+06            0            0 19 0 0
110  4.50983e+06            0            0 20 0 0
111  2.37346e+06            0            0 20 0 0
112  6.16415e+06            0            0 20 0 0
113  2.82705e+06            0            0 19 0 0
114 -4.37978e+06           -0           -0 19 0 0
115  6.02295e+06            0            0 19 0 0
116  2.83857e+06            0            0 20 0 0
117 -4.39763e+06           -0           -0 20 0 0
118  6.04749e+06            0            0 20 0 0
119 -4.22835e+06           -0           -0 19 0 0
120 -3.27321e+06           -0           -0 19 0 0
121  5.90405e+06            0            0 19 0 0
122 -4.24558e+06           -0           -0 20 0 0
123 -3.28654e+06           -0           -0 20 0 0
124   5.9281e+06            0            0 20 0 0
125 -3.72264e+06           -0           -0 19 0 0
126  4.03727e+06            0            0 19 0 0
127  5.77001e+06            0            0 19 0 0
128 -3.73781e+06           -0           -0 20 0 0
129  4.05372e+06            0            0 20 0 0
130  5.79352e+06            0            0 20 0 0
131  3.78227e+06            0            0 19 0 0
132  4.16877e+06            0            0 19 0 0
133  5.63617e+06            0            0 19 0 0
134  3.79768e+06            0            0 20 0 0
135  4.18575e+06            0            0 20 0 0
136  5.65913e+06            0            0 20 0 0
137  4.58099e+06            0            0 19 0 0
138 -3.46613e+06           -0           -0 19 0 0
139  5.51824e+06            0            0 19 0 0
140  4.59966e+06            0            0 20 0 0
141 -3.48026e+06           -0           -0 20 0 0
142  5.54073e+06            0            0 20 0 0
143 -3.11584e+06           -0           -0 19 0 0
144 -4.95487e+06           -0           -0 19 0 0
145   5.4029e+06            0            0 19 0 0
146 -3.12853e+06           -0           -0 20 0 0
147 -4.97506e+06           -0           -0 20 0 0
148  5.42492e+06            0            0 20 0 0
149 -5.30949e+06           -0           -0 19 0 0
150  2.73351e+06            0            0 19 0 0
151  5.27142e+06            0            0 19 0 0
152 -5.33112e+06           -0           -0 20 0 0
153  2.74465e+06            0            0 20 0 0
154   5.2929e+06            0            0 20 0 0
155  2.29907e+06            0            0 19 0 0
156  5.63939e+06            0            0 19 0 0
157  5.13441e+06            0            0 19 0 0
158  2.30844e+06            0            0 20 0 0
159  5.66236e+06            0            0 20 0 0
160  5.15533e+06            0            0 20 0 0
161  5.91746e+06            0            0 19 0 0
162  -1.8172e+06           -0           -0 19 0 0
163  5.01319e+06            0            0 19 0 0
164  5.94157e+06            0            0 20 0 0
165  -1.8246e+06           -0           -0 20 0 0
166  5.03361e+06            0            0 20 0 0
167 -1.31442e+06           -0           -0 19 0 0
168 -6.14072e+06           -0           -0 19 0 0
169  4.90046e+06            0            0 19 0 0
170 -1.31977e+06           -0           -0 20 0 0
171 -6.16574e+06           -0           -0 20 0 0
172  4.92042e+06            0            0 20 0 0
173 -6.32762e+06           -0           -0 19 0 0
174       794500            0            0 19 0 0
175   4.7729e+06            0            0 19 0 0
176  -6.3534e+06           -0           -0 20 0 0
177       797737            0            0 20 0 0
178  4.79235e+06            0            0 20 0 0
179       241023            0            0 19 0 0
180  6.47446e+06            0            0 19 0 0
181  4.63398e+06            0            0 19 0 0
182       242005            0            0 20 0 0
183  6.50084e+06            0            0 20 0 0
184  4.65287e+06            0            0 20 0 0
185  6.55819e+06            0            0 19 0 0
186       340034            0            0 19 0 0
187  4.50834e+06            0            0 19 0 0
188  6.58491e+06            0            0 20 0 0
189       341420            0            0 20 0 0
190  4.52671e+06            0            0 20 0 0
191       923229            0            0 19 0 0
192 -6.57778e+06           -0           -0 19 0 0
193  4.39671e+06            0            0 19 0 0
194       926991            0            0 20 0 0
195 -6.60458e+06           -0           -0 20 0 0
196  4.41462e+06            0            0 20 0 0
197 -6.55154e+06           -0           -0 19 0 0
198 -1.50388e+06           -0           -0 19 0 0
199  4.27391e+06            0            0 19 0 0
200 -6.57823e+06           -0           -0 20 0 0
201 -1.51001e+06           -0           -0 20 0 0
202  4.29132e+06            0            0 20 0 0
203 -2.09547e+06           -0           -0 19 0 0
204   6.4779e+06            0            0 19 0 0
205  4.13478e+06            0            0 19 0 0
206 -2.10401e+06           -0           -0 20 0 0
207  6.50429e+06            0            0 20 0 0
208  4.15163e+06            0            0 20 0 0
209  6.33818e+06            0            0 19 0 0
210  2.69152e+06            0            0 19 0 0
211  4.00423e+06            0            0 19 0 0
212    6.364e+06            0            0 20 0 0
213  2.70248e+06            0            0 20 0 0
214  4.02054e+06            0            0 20 0 0
215  3.26848e+06            0            0 19 0 0
216 -6.13359e+06           -0           -0 19 0 0
217  3.89187e+06            0            0 19 0 0
218   3.2818e+06            0            0 20 0 0
219 -6.15858e+06           -0           -0 20 0 0
220  3.90773e+06            0            0 20 0 0
221 -5.88245e+06           -0           -0 19 0 0
222 -3.82161e+06           -0           -0 19 0 0
223  3.77395e+06            0            0 19 0 0
224 -5.90642e+06           -0           -0 20 0 0
225 -3.83718e+06           -0           -0 20 0 0
226  3.78933e+06            0            0 20 0 0
227 -4.36229e+06           -0           -0 19 0 0
228  5.58542e+06            0            0 19 0 0
229  3.63649e+06            0            0 19 0 0
230 -4.38007e+06           -0           -0 20 0 0
231  5.60818e+06            0            0 20 0 0
232   3.6513e+06            0            0 20 0 0
233  5.22822e+06            0            0 19 0 0
234   4.8844e+06            0            0 19 0 0
235  3.50127e+06            0            0 19 0 0
236  5.24953e+06            0            0 20 0 0
237   4.9043e+06            0            0 20 0 0
238  3.51553e+06            0            0 20 0 0
239  5.36717e+06            0            0 19 0 0
240 -4.81423e+06           -0           -0 19 0 0
241  3.38634e+06            0            0 19 0 0
242  5.38903e+06            0            0 20 0 0
243 -4.83385e+06           -0           -0 20 0 0
244  3.40014e+06            0            0 20 0 0
245 -4.36162e+06           -0           -0 19 0 0
246 -5.80658e+06           -0           -0 19 0 0
247  3.27269e+06            0            0 19 0 0
248 -4.37939e+06           -0           -0 20 0 0
249 -5.83024e+06           -0           -0 20 0 0
250  3.28602e+06            0            0 20 0 0
251 -6.21281e+06           -0           -0 19 0 0
252  3.87306e+06            0            0 19 0 0
253  3.13864e+06            0            0 19 0 0
254 -6.23812e+06           -0           -0 20 0 0
255  3.88884e+06            0            0 20 0 0
256  3.15142e+06            0            0 20 0 0
257  3.33836e+06            0            0 19 0 0
258  6.58086e+06            0            0 19 0 0
259  2.99971e+06            0            0 19 0 0
260  3.35196e+06            0            0 20 0 0
261  6.60767e+06            0            0 20 0 0
262  3.01193e+06            0            0 20 0 0
263  6.89348e+06            0            0 19 0 0
264 -2.76268e+06           -0           -0 19 0 0
265  2.88063e+06            0            0 19 0 0
266  6.92157e+06            0            0 20 0 0
267 -2.77394e+06           -0           -0 20 0 0
268  2.89237e+06            0            0 20 0 0
269 -2.16361e+06           -0           -0 19 0 0
270 -7.14819e+06           -0           -0 19 0 0
271  2.76998e+06            0            0 19 0 0
272 -2.17243e+06           -0           -0 20 0 0
273 -7.17731e+06           -0           -0 20 0 0
274  2.78126e+06            0            0 20 0 0
275 -7.35455e+06           -0           -0 19 0 0
276  1.54532e+06            0            0 19 0 0
277  2.64068e+06            0            0 19 0 0
278 -7.38451e+06           -0           -0 20 0 0
279  1.55162e+06            0            0 20 0 0
280  2.65144e+06            0            0 20 0 0
281       901123            0            0 19 0 0
282  7.50937e+06            0            0 19 0 0
283   2.4996e+06            0            0 19 0 0
284       904795            0            0 20 0 0
285  7.53996e+06            0            0 20 0 0
286  2.50978e+06            0            0 20 0 0
287  7.59949e+06            0            0 19 0 0
288      -237318           -0           -0 19 0 0
289  2.37531e+06            0            0 19 0 0
290  7.63045e+06            0            0 20 0 0
291      -238285           -0           -0 20 0 0
292  2.38499e+06            0            0 20 0 0
293       429770            0            0 19 0 0
294 -7.62441e+06           -0           -0 19 0 0
295  2.26588e+06            0            0 19 0 0
296       431521            0            0 20 0 0
297 -7.65548e+06           -0           -0 20 0 0
298  2.27511e+06            0            0 20 0 0
299 -7.59359e+06           -0           -0 19 0 0
300 -1.09523e+06           -0           -0 19 0 0
301  2.14208e+06            0            0 19 0 0
302 -7.62453e+06           -0           -0 20 0 0
303 -1.09969e+06           -0           -0 20 0 0
304  2.15081e+06            0            0 20 0 0
305 -1.76298e+06           -0           -0 19 0 0
306  7.50596e+06            0            0 19 0 0
307  2.00076e+06            0            0 19 0 0
308 -1.77016e+06           -0           -0 20 0 0
309  7.53654e+06            0            0 20 0 0
310  2.00891e+06            0            0 20 0 0
311  7.35275e+06            0            0 19 0 0
312   2.4264e+06            0            0 19 0 0
313  1.87088e+06            0            0 19 0 0
314  7.38271e+06            0            0 20 0 0
315  2.43629e+06            0            0 20 0 0
316   1.8785e+06            0            0 20 0 0
317  3.07125e+06            0            0 19 0 0
318 -7.13569e+06           -0           -0 19 0 0
319  1.76067e+06            0            0 19 0 0
320  3.08376e+06            0            0 20 0 0
321 -7.16476e+06           -0           -0 20 0 0
322  1.76784e+06            0            0 20 0 0
323 -6.86419e+06           -0           -0 19 0 0
324 -3.69271e+06           -0           -0 19 0 0
325  1.64236e+06            0            0 19 0 0
326 -6.89216e+06           -0           -0 20 0 0
327 -3.70775e+06           -0           -0 20 0 0
328  1.64906e+06            0            0 20 0 0
329  -4.2928e+06           -0           -0 19 0 0
330  6.53941e+06            0            0 19 0 0
331  1.50284e+06            0            0 19 0 0
332 -4.31029e+06           -0           -0 20 0 0
333  6.56606e+06            0            0 20 0 0
334  1.50896e+06            0            0 20 0 0
335  6.15692e+06            0            0 19 0 0
336  4.86541e+06            0            0 19 0 0
337  1.36774e+06            0            0 19 0 0
338    6.182e+06            0            0 20 0 0
339  4.88524e+06            0            0 20 0 0
340  1.37332e+06            0            0 20 0 0
341  5.39923e+06            0            0 19 0 0
342 -5.72053e+06           -0           -0 19 0 0
343  1.25478e+06            0            0 19 0 0
344  5.42123e+06            0            0 20 0 0
345 -5.74383e+06           -0           -0 20 0 0
346  1.25989e+06            0            0 20 0 0
347 -5.23945e+06           -0           -0 19 0 0
348 -5.89036e+06           -0           -0 19 0 0
349  1.14123e+06            0            0 19 0 0
350  -5.2608e+06           -0           -0 20 0 0
351 -5.91436e+06           -0           -0 20 0 0
352  1.14587e+06            0            0 20 0 0
353 -6.33971e+06           -0           -0 19 0 0
354  4.71677e+06            0            0 19 0 0
355  1.00533e+06            0            0 19 0 0
356 -6.36554e+06           -0           -0 20 0 0
357  4.73599e+06            0            0 20 0 0
358  1.00942e+06            0            0 20 0 0
359  4.15204e+06            0            0 19 0 0
360  6.74247e+06            0            0 19 0 0
361       866113            0            0 19 0 0
362  4.16896e+06            0            0 20 0 0
363  6.76995e+06            0            0 20 0 0
364       869642            0            0 20 0 0
365  7.09098e+06            0            0 19 0 0
366 -3.55076e+06           -0           -0 19 0 0
367       748761            0            0 19 0 0
368  7.11987e+06            0            0 20 0 0
369 -3.56523e+06           -0           -0 20 0 0
370       751811            0            0 20 0 0
371 -2.92145e+06           -0           -0 19 0 0
372 -7.38295e+06           -0           -0 19 0 0
373       638547            0            0 19 0 0
374 -2.93335e+06           -0           -0 20 0 0
375 -7.41303e+06           -0           -0 20 0 0
376       641149            0            0 20 0 0
377 -7.61883e+06           -0           -0 19 0 0
378  2.26853e+06            0            0 19 0 0
379       507655            0            0 19 0 0
380 -7.64988e+06           -0           -0 20 0 0
381  2.27777e+06            0            0 20 0 0
382       509724            0            0 20 0 0
383  1.59496e+06            0            0 19 0 0
384  7.79569e+06            0            0 19 0 0
385       365998            0            0 19 0 0
386  1.60146e+06            0            0 20 0 0
387  7.82745e+06            0            0 20 0 0
388       367489            0            0 20 0 0
389  7.91002e+06            0            0 19 0 0
390      -907227           -0           -0 19 0 0
391       243182            0            0 19 0 0
392  7.94225e+06            0            0 20 0 0
393      -910923           -0           -0 20 0 0
394       244173            0            0 20 0 0
395      -212444           -0           -0 19 0 0
396 -7.96162e+06           -0           -0 19 0 0
397       134434            0            0 19 0 0
398      -213310           -0           -0 20 0 0
399 -7.99406e+06           -0           -0 20 0 0
400       134982            0            0 20 0 0
401 -7.95084e+06           -0           -0 19 0 0
402      -484344           -0           -0 19 0 0
403      9278.71            0            0 19 0 0
404 -7.98324e+06           -0           -0 20 0 0
405      -486318           -0           -0 20 0 0
406      9316.51            0            0 20 0 0

# Format of trapezoid gradients:
