# Pulseq sequence file
# Created by MATLAB mr toolbox

[VERSION]
major 1
minor 5
revision 0

[DEFINITIONS]
AccelerationFactorPE 2 
AdcRasterTime 1e-07 
BlockDurationRaster 1e-05 
FOV 0.22 0.22 0.0465 
FirstFourierLine 1 
FirstRefLine 22 
GradientRasterTime 1e-05 
Name epi 
PhaseEncodingLine_DIFF 146 
PhaseResolution 1 
RadiofrequencyRasterTime 1e-06 
ReadoutOversamplingFactor 2 
ReceiverGainHigh 1 
RefLinesPE 30 
SliceGap 0 
SlicePositions -0.0225 -0.0195 -0.0165 -0.0135 -0.0105 -0.0075 -0.0045 -0.0015 0.0015 0.0045 0.0075 0.0105 0.0135 0.0165 0.0195 0.0225 -0.021 -0.018 -0.015 -0.012 -0.009 -0.006 -0.003 0 0.003 0.006 0.009 0.012 0.015 0.018 0.021 
SliceThickness 0.0015 
TargetGriddedSamples 292 
TotalDuration 271.18945 
TrapezoidGriddingParameters 0.00023 0.00023 0.00023 5.3e-05 0.000584 
kSpaceCenterLine 37 

# Format of blocks:
# NUM DUR RF  GX  GY  GZ  ADC  EXT
[BLOCKS]
     1   0   0   0   0   0  0  3
     2  65   0   0   0   0  1  4
     3   0   0   0   0   0  0  5
     4 350   0   1   1   1  0  0
     5 1163   1   2   2   2  0  0
     6 375   2   0   0   3  0  6
     7 103   0   4   0   5  0  0
     8  69   0   6   0   0  0  0
     9  69   0   7   0   0  0  0
    10  69   0   6   0   0  0  0
    11  46   0   8   0   0  0  0
    12 2603   0   0   0   0  0  0
    13 707   3  10  10   9  0  0
    14 1738   0   0   0   0  0  0
    15 103   0   4  11   0  0  0
    16  69   0   6  12   0  0  0
    17  69   0   7  13   0  0  7
    18  69   0   6  13   0  0  8
    19  69   0   7  13   0  0  7
    20  69   0   6  13   0  0  8
    21  69   0   7  13   0  0  7
    22  69   0   6  13   0  0  8
    23  69   0   7  13   0  0  7
    24  69   0   6  13   0  0  8
    25  69   0   7  13   0  0  7
    26  69   0   6  13   0  0  8
    27  69   0   7  13   0  0  7
    28  69   0   6  13   0  0  8
    29  69   0   7  13   0  0  7
    30  69   0   6  13   0  0  8
    31  69   0   7  13   0  0  7
    32  69   0   6  13   0  0  8
    33  69   0   7  13   0  0  7
    34  69   0   6  13   0  0  8
    35  69   0   7  13   0  0  7
    36  69   0   6  13   0  0  8
    37  69   0   7  13   0  0  7
    38  69   0   6  13   0  0  8
    39  69   0   7  13   0  0  7
    40  69   0   6  13   0  0  8
    41  69   0   7  13   0  0  7
    42  69   0   6  13   0  0  8
    43  69   0   7  13   0  0  7
    44  69   0   6  13   0  0  8
    45  69   0   7  13   0  0  7
    46  69   0   6  13   0  0  8
    47  69   0   7  13   0  0  7
    48  69   0   6  13   0  0  8
    49  69   0   7  13   0  0  7
    50  69   0   6  13   0  0  8
    51  69   0   7  13   0  0  7
    52  69   0   6  13   0  0  8
    53  69   0   7  14   0  0  0
    54  60   0  16  15   0  0  0
    55 6235   0   0   0   0  0  0
    56   0   0   0   0   0  0  9
    57 350   0   1   1   1  0  0
    58 1163   1   2   2   2  0  0
    59 375   2   0   0   3  0  6
    60 103   0   4   0   5  0  0
    61  69   0   6   0   0  0  0
    62  69   0   7   0   0  0  0
    63  69   0   6   0   0  0  0
    64  46   0   8   0   0  0  0
    65 2603   0   0   0   0  0  0
    66 707   3  10  10   9  0  0
    67 1738   0   0   0   0  0  0
    68 103   0   4  11   0  0  0
    69  69   0   6  12   0  0  0
    70  69   0   7  13   0  0  7
    71  69   0   6  13   0  0  8
    72  69   0   7  13   0  0  7
    73  69   0   6  13   0  0  8
    74  69   0   7  13   0  0  7
    75  69   0   6  13   0  0  8
    76  69   0   7  13   0  0  7
    77  69   0   6  13   0  0  8
    78  69   0   7  13   0  0  7
    79  69   0   6  13   0  0  8
    80  69   0   7  13   0  0  7
    81  69   0   6  13   0  0  8
    82  69   0   7  13   0  0  7
    83  69   0   6  13   0  0  8
    84  69   0   7  13   0  0  7
    85  69   0   6  13   0  0  8
    86  69   0   7  13   0  0  7
    87  69   0   6  13   0  0  8
    88  69   0   7  13   0  0  7
    89  69   0   6  13   0  0  8
    90  69   0   7  13   0  0  7
    91  69   0   6  13   0  0  8
    92  69   0   7  13   0  0  7
    93  69   0   6  13   0  0  8
    94  69   0   7  13   0  0  7
    95  69   0   6  13   0  0  8
    96  69   0   7  13   0  0  7
    97  69   0   6  13   0  0  8
    98  69   0   7  13   0  0  7
    99  69   0   6  13   0  0  8
   100  69   0   7  13   0  0  7
   101  69   0   6  13   0  0  8
   102  69   0   7  13   0  0  7
   103  69   0   6  13   0  0  8
   104  69   0   7  13   0  0  7
   105  69   0   6  13   0  0  8
   106  69   0   7  14   0  0  0
   107  60   0  16  15   0  0  0
   108 6235   0   0   0   0  0  0
   109   0   0   0   0   0  0  9
   110 350   0   1   1   1  0  0
   111 1163   1   2   2   2  0  0
   112 375   2   0   0   3  0  6
   113 103   0   4   0   5  0  0
   114  69   0   6   0   0  0  0
   115  69   0   7   0   0  0  0
   116  69   0   6   0   0  0  0
   117  46   0   8   0   0  0  0
   118 2603   0   0   0   0  0  0
   119 707   3  10  10   9  0  0
   120 1738   0   0   0   0  0  0
   121 103   0   4  11   0  0  0
   122  69   0   6  12   0  0  0
   123  69   0   7  13   0  0  7
   124  69   0   6  13   0  0  8
   125  69   0   7  13   0  0  7
   126  69   0   6  13   0  0  8
   127  69   0   7  13   0  0  7
   128  69   0   6  13   0  0  8
   129  69   0   7  13   0  0  7
   130  69   0   6  13   0  0  8
   131  69   0   7  13   0  0  7
   132  69   0   6  13   0  0  8
   133  69   0   7  13   0  0  7
   134  69   0   6  13   0  0  8
   135  69   0   7  13   0  0  7
   136  69   0   6  13   0  0  8
   137  69   0   7  13   0  0  7
   138  69   0   6  13   0  0  8
   139  69   0   7  13   0  0  7
   140  69   0   6  13   0  0  8
   141  69   0   7  13   0  0  7
   142  69   0   6  13   0  0  8
   143  69   0   7  13   0  0  7
   144  69   0   6  13   0  0  8
   145  69   0   7  13   0  0  7
   146  69   0   6  13   0  0  8
   147  69   0   7  13   0  0  7
   148  69   0   6  13   0  0  8
   149  69   0   7  13   0  0  7
   150  69   0   6  13   0  0  8
   151  69   0   7  13   0  0  7
   152  69   0   6  13   0  0  8
   153  69   0   7  13   0  0  7
   154  69   0   6  13   0  0  8
   155  69   0   7  13   0  0  7
   156  69   0   6  13   0  0  8
   157  69   0   7  13   0  0  7
   158  69   0   6  13   0  0  8
   159  69   0   7  14   0  0  0
   160  60   0  16  15   0  0  0
   161 6235   0   0   0   0  0  0
   162   0   0   0   0   0  0  9
   163   0   0   0   0   0  0 10
   164 350   0   1   1   1  0  0
   165 1163   1   2   2   2  0  0
   166 375   2   0   0   3  0  6
   167 103   0   4   0   5  0 12
   168   0   0   0   0   0  0 13
   169   0   0   0   0   0  0 15
   170  69   0   6   0   0  1  0
   171   0   0   0   0   0  0 17
   172  69   0   7   0   0  1  0
   173   0   0   0   0   0  0 18
   174  69   0   6   0   0  1  0
   175  46   0   8   0   0  0 12
   176 2603   0   0   0   0  0  0
   177 707   3  10  10   9  0  0
   178 1738   0   0   0   0  0  0
   179   0   0   0   0   0  0 19
   180 103   0   4  11   0  0 22
   181  69   0   6  12   0  0 25
   182  69   0   7  13   0  0 27
   183  69   0   6  13   0  0 25
   184  69   0   7  13   0  1 27
   185  69   0   6  13   0  1 25
   186  69   0   7  13   0  1 27
   187  69   0   6  13   0  1 25
   188  69   0   7  13   0  1 27
   189  69   0   6  13   0  1 25
   190  69   0   7  13   0  1 27
   191  69   0   6  13   0  1 25
   192  69   0   7  13   0  1 27
   193  69   0   6  13   0  1 25
   194  69   0   7  13   0  1 27
   195  69   0   6  13   0  1 25
   196  69   0   7  13   0  1 27
   197  69   0   6  13   0  1 25
   198  69   0   7  13   0  1 27
   199  69   0   6  13   0  1 25
   200  69   0   7  13   0  1 27
   201  69   0   6  13   0  1 25
   202  69   0   7  13   0  1 27
   203  69   0   6  13   0  1 25
   204  69   0   7  13   0  1 27
   205  69   0   6  13   0  1 25
   206  69   0   7  13   0  1 27
   207  69   0   6  13   0  1 25
   208  69   0   7  13   0  1 27
   209  69   0   6  13   0  1 25
   210  69   0   7  13   0  1 27
   211  69   0   6  13   0  1 25
   212  69   0   7  13   0  1 27
   213  69   0   6  13   0  1 25
   214  69   0   7  13   0  0 27
   215  69   0   6  13   0  0 25
   216  69   0   7  13   0  0 27
   217  69   0   6  13   0  0 25
   218  69   0   7  14   0  0 27
   219  60   0  16  15   0  0  0
   220 6235   0   0   0   0  0  0
   221   0   0   0   0   0  0  9
   222 350   0   1   1   1  0  0
   223 1163   1   2   2   2  0  0
   224 375   4   0   0   3  0  6
   225 103   0   4   0   5  0 12
   226   0   0   0   0   0  0 13
   227   0   0   0   0   0  0 15
   228  69   0   6   0   0  1  0
   229   0   0   0   0   0  0 17
   230  69   0   7   0   0  1  0
   231   0   0   0   0   0  0 18
   232  69   0   6   0   0  1  0
   233  46   0   8   0   0  0 12
   234 2603   0   0   0   0  0  0
   235 707   5  10  10   9  0  0
   236 1738   0   0   0   0  0  0
   237   0   0   0   0   0  0 19
   238 103   0   4  11   0  0 22
   239  69   0   6  12   0  0 25
   240  69   0   7  13   0  0 27
   241  69   0   6  13   0  0 25
   242  69   0   7  13   0  1 27
   243  69   0   6  13   0  1 25
   244  69   0   7  13   0  1 27
   245  69   0   6  13   0  1 25
   246  69   0   7  13   0  1 27
   247  69   0   6  13   0  1 25
   248  69   0   7  13   0  1 27
   249  69   0   6  13   0  1 25
   250  69   0   7  13   0  1 27
   251  69   0   6  13   0  1 25
   252  69   0   7  13   0  1 27
   253  69   0   6  13   0  1 25
   254  69   0   7  13   0  1 27
   255  69   0   6  13   0  1 25
   256  69   0   7  13   0  1 27
   257  69   0   6  13   0  1 25
   258  69   0   7  13   0  1 27
   259  69   0   6  13   0  1 25
   260  69   0   7  13   0  1 27
   261  69   0   6  13   0  1 25
   262  69   0   7  13   0  1 27
   263  69   0   6  13   0  1 25
   264  69   0   7  13   0  1 27
   265  69   0   6  13   0  1 25
   266  69   0   7  13   0  1 27
   267  69   0   6  13   0  1 25
   268  69   0   7  13   0  1 27
   269  69   0   6  13   0  1 25
   270  69   0   7  13   0  1 27
   271  69   0   6  13   0  1 25
   272  69   0   7  13   0  0 27
   273  69   0   6  13   0  0 25
   274  69   0   7  13   0  0 27
   275  69   0   6  13   0  0 25
[RF]
1      129.712 2 3 0 4000 100 -3.45 0.086708 0 0 s
2       292.11 4 5 6 1725 150 0 0 -12465.8 135.11 e
3      845.482 7 8 9 2880.75 510 0 0 11473.4 -209.243 r
4       292.11 4 5 6 1725 150 0 0 -10803.7 117.096 e
5      845.482 7 8 9 2880.75 510 0 0 9943.64 -181.554 r
6       292.11 4 5 6 1725 150 0 0 -9141.58 99.081 e
7      845.482 7 8 9 2880.75 510 0 0 8413.85 -153.864 r
8       292.11 4 5 6 1725 150 0 0 -7479.48 81.0663 e
9      845.482 7 8 9 2880.75 510 0 0 6884.06 -126.174 r
10       292.11 4 5 6 1725 150 0 0 -5817.37 63.0515 e
11      845.482 7 8 9 2880.75 510 0 0 5354.27 -98.4846 r
12       292.11 4 5 6 1725 150 0 0 -4155.27 45.0368 e
13      845.482 7 8 9 2880.75 510 0 0 3824.48 -70.7949 r
14       292.11 4 5 6 1725 150 0 0 -2493.16 27.0221 e
15      845.482 7 8 9 2880.75 510 0 0 2294.69 -43.1053 r
16       292.11 4 5 6 1725 150 0 0 -831.053 9.00736 e
17      845.482 7 8 9 2880.75 510 0 0 764.895 -15.4156 r
18       292.11 4 5 6 1725 150 0 0 831.053 -9.00736 e
19      845.482 7 8 9 2880.75 510 0 0 -764.895 12.274 r
20       292.11 4 5 6 1725 150 0 0 2493.16 -27.0221 e
21      845.482 7 8 9 2880.75 510 0 0 -2294.69 39.9637 r
22       292.11 4 5 6 1725 150 0 0 4155.27 -45.0368 e
23      845.482 7 8 9 2880.75 510 0 0 -3824.48 67.6533 r
24       292.11 4 5 6 1725 150 0 0 5817.37 -63.0515 e
25      845.482 7 8 9 2880.75 510 0 0 -5354.27 95.343 r
26       292.11 4 5 6 1725 150 0 0 7479.48 -81.0663 e
27      845.482 7 8 9 2880.75 510 0 0 -6884.06 123.033 r
28       292.11 4 5 6 1725 150 0 0 9141.58 -99.081 e
29      845.482 7 8 9 2880.75 510 0 0 -8413.85 150.722 r
30       292.11 4 5 6 1725 150 0 0 10803.7 -117.096 e
31      845.482 7 8 9 2880.75 510 0 0 -9943.64 178.412 r
32       292.11 4 5 6 1725 150 0 0 12465.8 -135.11 e
33      845.482 7 8 9 2880.75 510 0 0 -11473.4 206.102 r
34       292.11 4 5 6 1725 150 0 0 -11634.7 126.103 e
35      845.482 7 8 9 2880.75 510 0 0 10708.5 -195.398 r
36       292.11 4 5 6 1725 150 0 0 -9972.64 108.088 e
37      845.482 7 8 9 2880.75 510 0 0 9178.74 -167.709 r
38       292.11 4 5 6 1725 150 0 0 -8310.53 90.0736 e
39      845.482 7 8 9 2880.75 510 0 0 7648.95 -140.019 r
40       292.11 4 5 6 1725 150 0 0 -6648.42 72.0589 e
41      845.482 7 8 9 2880.75 510 0 0 6119.16 -112.329 r
42       292.11 4 5 6 1725 150 0 0 -4986.32 54.0442 e
43      845.482 7 8 9 2880.75 510 0 0 4589.37 -84.6397 r
44       292.11 4 5 6 1725 150 0 0 -3324.21 36.0295 e
45      845.482 7 8 9 2880.75 510 0 0 3059.58 -56.9501 r
46       292.11 4 5 6 1725 150 0 0 -1662.11 18.0147 e
47      845.482 7 8 9 2880.75 510 0 0 1529.79 -29.2604 r
48       292.11 4 5 6 1725 150 0 0 0 -0 e
49      845.482 7 8 9 2880.75 510 0 0 -0 -1.5708 r
50       292.11 4 5 6 1725 150 0 0 1662.11 -18.0147 e
51      845.482 7 8 9 2880.75 510 0 0 -1529.79 26.1189 r
52       292.11 4 5 6 1725 150 0 0 3324.21 -36.0295 e
53      845.482 7 8 9 2880.75 510 0 0 -3059.58 53.8085 r
54       292.11 4 5 6 1725 150 0 0 4986.32 -54.0442 e
55      845.482 7 8 9 2880.75 510 0 0 -4589.37 81.4981 r
56       292.11 4 5 6 1725 150 0 0 6648.42 -72.0589 e
57      845.482 7 8 9 2880.75 510 0 0 -6119.16 109.188 r
58       292.11 4 5 6 1725 150 0 0 8310.53 -90.0736 e
59      845.482 7 8 9 2880.75 510 0 0 -7648.95 136.877 r
60       292.11 4 5 6 1725 150 0 0 9972.64 -108.088 e
61      845.482 7 8 9 2880.75 510 0 0 -9178.74 164.567 r
62       292.11 4 5 6 1725 150 0 0 11634.7 -126.103 e
63      845.482 7 8 9 2880.75 510 0 0 -10708.5 192.257 r

# Format of arbitrary gradients:
#   time_shape_id of 0 means default timing (stepping with grad_raster starting at 1/2 of grad_raster)
# id amplitude first last amp_shape_id time_shape_id delay
# ..      Hz/m  Hz/m Hz/m        ..         ..          us
[GRADIENTS]
9 -1.63281e+06           -0           -0 10 11 0
10 -1.63281e+06           -0           -0 12 11 0
12      -113636            0      -113636 13 14 660
13      -113636      -113636      -113636 15 16 0
14      -113636      -113636            0 17 18 0
17            0            0            0 19 0 0
18            0            0            0 20 0 0
20      -181818            0      -181818 13 21 650
21      -181818      -181818      -181818 15 22 0
22      -181818      -181818            0 17 23 0
25     -15909.4            0            0 24 0 0
26 -1.65169e+06            0            0 24 0 0
27 -7.82818e+06            0            0 24 0 0
28     -15834.2            0            0 25 0 0
29 -1.64388e+06            0            0 25 0 0
30 -7.79117e+06            0            0 25 0 0
31 -2.04739e+06            0            0 24 0 0
32 -2.41673e+06            0            0 24 0 0
33 -7.34686e+06            0            0 24 0 0
34 -2.03771e+06            0            0 25 0 0
35  -2.4053e+06            0            0 25 0 0
36 -7.31212e+06            0            0 25 0 0
37 -2.98857e+06            0            0 24 0 0
38       547310           -0           -0 24 0 0
39 -7.40119e+06            0            0 24 0 0
40 -2.97444e+06            0            0 25 0 0
41       544722           -0           -0 25 0 0
42  -7.3662e+06            0            0 25 0 0
43       550906           -0           -0 24 0 0
44  1.83658e+06           -0           -0 24 0 0
45 -7.76738e+06            0            0 24 0 0
46       548302           -0           -0 25 0 0
47   1.8279e+06           -0           -0 25 0 0
48 -7.73066e+06            0            0 25 0 0
49  2.33549e+06           -0           -0 24 0 0
50 -2.10333e+06            0            0 24 0 0
51 -7.35732e+06            0            0 24 0 0
52  2.32444e+06           -0           -0 25 0 0
53 -2.09338e+06            0            0 25 0 0
54 -7.32254e+06            0            0 25 0 0
55 -1.86673e+06            0            0 24 0 0
56 -4.31399e+06            0            0 24 0 0
57 -6.47407e+06            0            0 24 0 0
58  -1.8579e+06            0            0 25 0 0
59 -4.29359e+06            0            0 25 0 0
60 -6.44346e+06            0            0 25 0 0
61 -4.68508e+06            0            0 24 0 0
62       127852           -0           -0 24 0 0
63 -6.48401e+06            0            0 24 0 0
64 -4.66293e+06            0            0 25 0 0
65       127248           -0           -0 25 0 0
66 -6.45335e+06            0            0 25 0 0
67      -214549            0            0 24 0 0
68  3.50997e+06           -0           -0 24 0 0
69 -7.18629e+06            0            0 24 0 0
70      -213534            0            0 25 0 0
71  3.49338e+06           -0           -0 25 0 0
72 -7.15231e+06            0            0 25 0 0
73  3.81546e+06           -0           -0 24 0 0
74      -936474            0            0 24 0 0
75  -6.9695e+06            0            0 24 0 0
76  3.79742e+06           -0           -0 25 0 0
77      -932046            0            0 25 0 0
78 -6.93655e+06            0            0 25 0 0
79      -453278            0            0 24 0 0
80 -5.47021e+06            0            0 24 0 0
81 -5.82065e+06            0            0 24 0 0
82      -451135            0            0 25 0 0
83 -5.44435e+06            0            0 25 0 0
84 -5.79313e+06            0            0 25 0 0
85 -5.62229e+06            0            0 24 0 0
86 -1.31905e+06            0            0 24 0 0
87 -5.53702e+06            0            0 24 0 0
88 -5.59571e+06            0            0 25 0 0
89 -1.31282e+06            0            0 25 0 0
90 -5.51085e+06            0            0 25 0 0
91 -1.83525e+06            0            0 24 0 0
92  4.40241e+06           -0           -0 24 0 0
93 -6.42334e+06            0            0 24 0 0
94 -1.82657e+06            0            0 25 0 0
95   4.3816e+06           -0           -0 25 0 0
96 -6.39298e+06            0            0 25 0 0
97  4.46452e+06           -0           -0 24 0 0
98       955463           -0           -0 24 0 0
99 -6.56992e+06            0            0 24 0 0
100  4.44341e+06           -0           -0 25 0 0
101       950946           -0           -0 25 0 0
102 -6.53886e+06            0            0 25 0 0
103  1.54629e+06           -0           -0 24 0 0
104 -5.76437e+06            0            0 24 0 0
105  -5.3282e+06            0            0 24 0 0
106  1.53898e+06           -0           -0 25 0 0
107 -5.73712e+06            0            0 25 0 0
108 -5.30301e+06            0            0 25 0 0
109 -5.65698e+06            0            0 24 0 0
110 -3.24033e+06            0            0 24 0 0
111 -4.63763e+06            0            0 24 0 0
112 -5.63023e+06            0            0 25 0 0
113 -3.22501e+06            0            0 25 0 0
114  -4.6157e+06            0            0 25 0 0
115 -3.80029e+06            0            0 24 0 0
116  4.37066e+06           -0           -0 24 0 0
117 -5.51941e+06            0            0 24 0 0
118 -3.78232e+06            0            0 25 0 0
119  4.34999e+06           -0           -0 25 0 0
120 -5.49331e+06            0            0 25 0 0
121  4.16774e+06           -0           -0 24 0 0
122   3.0868e+06           -0           -0 24 0 0
123 -6.09182e+06            0            0 24 0 0
124  4.14804e+06           -0           -0 25 0 0
125  3.07221e+06           -0           -0 25 0 0
126 -6.06302e+06            0            0 25 0 0
127  3.65954e+06           -0           -0 24 0 0
128 -5.10607e+06            0            0 24 0 0
129 -4.95424e+06            0            0 24 0 0
130  3.64224e+06           -0           -0 25 0 0
131 -5.08193e+06            0            0 25 0 0
132 -4.93082e+06            0            0 25 0 0
133 -4.73936e+06            0            0 24 0 0
134 -5.17512e+06            0            0 24 0 0
135 -3.84257e+06            0            0 24 0 0
136 -4.71695e+06            0            0 25 0 0
137 -5.15065e+06            0            0 25 0 0
138  -3.8244e+06            0            0 25 0 0
139 -5.65825e+06            0            0 24 0 0
140  3.39683e+06           -0           -0 24 0 0
141 -4.52267e+06            0            0 24 0 0
142 -5.63149e+06            0            0 25 0 0
143  3.38077e+06           -0           -0 25 0 0
144 -4.50129e+06            0            0 25 0 0
145  2.95143e+06           -0           -0 24 0 0
146  5.01669e+06           -0           -0 24 0 0
147 -5.48913e+06            0            0 24 0 0
148  2.93748e+06           -0           -0 25 0 0
149  4.99298e+06           -0           -0 25 0 0
150 -5.46318e+06            0            0 25 0 0
151  5.45856e+06           -0           -0 24 0 0
152 -3.55543e+06            0            0 24 0 0
153 -4.64454e+06            0            0 24 0 0
154  5.43275e+06           -0           -0 25 0 0
155 -3.53863e+06            0            0 25 0 0
156 -4.62258e+06            0            0 25 0 0
157 -2.97351e+06            0            0 24 0 0
158 -6.70927e+06            0            0 24 0 0
159 -3.18632e+06            0            0 24 0 0
160 -2.95945e+06            0            0 25 0 0
161 -6.67755e+06            0            0 25 0 0
162 -3.17126e+06            0            0 25 0 0
163  -7.0139e+06            0            0 24 0 0
164  1.61799e+06           -0           -0 24 0 0
165 -3.49228e+06            0            0 24 0 0
166 -6.98074e+06            0            0 25 0 0
167  1.61034e+06           -0           -0 25 0 0
168 -3.47577e+06            0            0 25 0 0
169       993920           -0           -0 24 0 0
170   6.3683e+06           -0           -0 24 0 0
171 -4.73978e+06            0            0 24 0 0
172       989221           -0           -0 25 0 0
173  6.33819e+06           -0           -0 25 0 0
174 -4.71738e+06            0            0 25 0 0
175  6.59205e+06           -0           -0 24 0 0
176 -1.32112e+06            0            0 24 0 0
177 -4.33685e+06            0            0 24 0 0
178  6.56088e+06           -0           -0 25 0 0
179 -1.31488e+06            0            0 25 0 0
180 -4.31634e+06            0            0 25 0 0
181      -604807            0            0 24 0 0
182 -7.51471e+06            0            0 24 0 0
183 -2.67807e+06            0            0 24 0 0
184      -601948            0            0 25 0 0
185 -7.47918e+06            0            0 25 0 0
186 -2.66541e+06            0            0 25 0 0
187 -7.57098e+06            0            0 24 0 0
188      -694229            0            0 24 0 0
189 -2.49137e+06            0            0 24 0 0
190 -7.53519e+06            0            0 25 0 0
191      -690947            0            0 25 0 0
192  -2.4796e+06            0            0 25 0 0
193 -1.40249e+06            0            0 24 0 0
194  6.87301e+06           -0           -0 24 0 0
195 -3.84753e+06            0            0 24 0 0
196 -1.39586e+06            0            0 25 0 0
197  6.84051e+06           -0           -0 25 0 0
198 -3.82934e+06            0            0 25 0 0
199   6.8286e+06           -0           -0 24 0 0
200  1.27352e+06           -0           -0 24 0 0
201 -3.96952e+06            0            0 24 0 0
202  6.79632e+06           -0           -0 25 0 0
203   1.2675e+06           -0           -0 25 0 0
204 -3.95075e+06            0            0 25 0 0
205     2.02e+06           -0           -0 24 0 0
206  -7.3913e+06            0            0 24 0 0
207 -2.30152e+06            0            0 24 0 0
208  2.01045e+06           -0           -0 25 0 0
209 -7.35636e+06            0            0 25 0 0
210 -2.29063e+06            0            0 25 0 0
211 -7.17072e+06            0            0 24 0 0
212 -3.17806e+06            0            0 24 0 0
213 -1.57779e+06            0            0 24 0 0
214 -7.13682e+06            0            0 25 0 0
215 -3.16303e+06            0            0 25 0 0
216 -1.57033e+06            0            0 25 0 0
217  -3.8608e+06            0            0 24 0 0
218  6.40587e+06           -0           -0 24 0 0
219 -2.84038e+06            0            0 24 0 0
220 -3.84255e+06            0            0 25 0 0
221  6.37558e+06           -0           -0 25 0 0
222 -2.82695e+06            0            0 25 0 0
223  6.08725e+06           -0           -0 24 0 0
224  3.84306e+06           -0           -0 24 0 0
225 -3.49071e+06            0            0 24 0 0
226  6.05847e+06           -0           -0 25 0 0
227  3.82489e+06           -0           -0 25 0 0
228 -3.47421e+06            0            0 25 0 0
229  4.50893e+06           -0           -0 24 0 0
230 -6.29326e+06            0            0 24 0 0
231 -2.01819e+06            0            0 24 0 0
232  4.48762e+06           -0           -0 25 0 0
233 -6.26351e+06            0            0 25 0 0
234 -2.00865e+06            0            0 25 0 0
235 -5.81227e+06            0            0 24 0 0
236    -5.44e+06            0            0 24 0 0
237      -795374            0            0 24 0 0
238 -5.78479e+06            0            0 25 0 0
239 -5.41428e+06            0            0 25 0 0
240      -791614            0            0 25 0 0
241 -5.98986e+06            0            0 24 0 0
242  5.00128e+06           -0           -0 24 0 0
243 -1.76563e+06            0            0 24 0 0
244 -5.96154e+06            0            0 25 0 0
245  4.97764e+06           -0           -0 25 0 0
246 -1.75728e+06            0            0 25 0 0
247  4.44662e+06           -0           -0 24 0 0
248  6.00173e+06           -0           -0 24 0 0
249 -2.86628e+06            0            0 24 0 0
250  4.42559e+06           -0           -0 25 0 0
251  5.97335e+06           -0           -0 25 0 0
252 -2.85273e+06            0            0 25 0 0
253  6.48733e+06           -0           -0 24 0 0
254 -4.33317e+06            0            0 24 0 0
255 -1.77393e+06            0            0 24 0 0
256  6.45666e+06           -0           -0 25 0 0
257 -4.31268e+06            0            0 25 0 0
258 -1.76554e+06            0            0 25 0 0
259 -3.65004e+06            0            0 24 0 0
260 -7.11744e+06            0            0 24 0 0
261      -167254            0            0 24 0 0
262 -3.63278e+06            0            0 25 0 0
263 -7.08379e+06            0            0 25 0 0
264      -166463            0            0 25 0 0
265 -7.44643e+06            0            0 24 0 0
266  2.84503e+06           -0           -0 24 0 0
267      -682081            0            0 24 0 0
268 -7.41122e+06            0            0 25 0 0
269  2.83158e+06           -0           -0 25 0 0
270      -678857            0            0 25 0 0
271  2.13028e+06           -0           -0 24 0 0
272  7.42452e+06           -0           -0 24 0 0
273 -2.08497e+06            0            0 24 0 0
274  2.12021e+06           -0           -0 25 0 0
275  7.38942e+06           -0           -0 25 0 0
276 -2.07511e+06            0            0 25 0 0
277  7.65703e+06           -0           -0 24 0 0
278 -1.76222e+06            0            0 24 0 0
279 -1.50768e+06            0            0 24 0 0
280  7.62083e+06           -0           -0 25 0 0
281 -1.75389e+06            0            0 25 0 0
282 -1.50055e+06            0            0 25 0 0
283      -967544            0            0 24 0 0
284 -7.93587e+06            0            0 24 0 0
285       307566           -0           -0 24 0 0
286      -962970            0            0 25 0 0
287 -7.89835e+06            0            0 25 0 0
288       306112           -0           -0 25 0 0
289  -7.9892e+06            0            0 24 0 0
290       243444           -0           -0 24 0 0
291       349400           -0           -0 24 0 0
292 -7.95143e+06            0            0 25 0 0
293       242293           -0           -0 25 0 0
294       347748           -0           -0 25 0 0
295      -529791            0            0 24 0 0
296  7.89826e+06           -0           -0 24 0 0
297 -1.15997e+06            0            0 24 0 0
298      -527286            0            0 25 0 0
299  7.86092e+06           -0           -0 25 0 0
300 -1.15448e+06            0            0 25 0 0
301  7.84311e+06           -0           -0 24 0 0
302  1.07046e+06           -0           -0 24 0 0
303  -1.1612e+06            0            0 24 0 0
304  7.80603e+06           -0           -0 25 0 0
305   1.0654e+06           -0           -0 25 0 0
306 -1.15571e+06            0            0 25 0 0
307  1.86816e+06           -0           -0 24 0 0
308 -7.75184e+06            0            0 24 0 0
309       653941           -0           -0 24 0 0
310  1.85933e+06           -0           -0 25 0 0
311 -7.71519e+06            0            0 25 0 0
312       650849           -0           -0 25 0 0

# Format of trapezoid gradients:
# id amplitude rise flat fall delay
# ..      Hz/m   us   us   us    us
[TRAP]
 1  1.02192e+06 500 2500 500   0
 2 -1.02192e+06 500 2500 500 8130
 3       554035 150 3450 150   0
 4  1.46484e+06 230    0 230 570
 5 -1.88163e+06 500   30 500   0
 6 -1.46484e+06 230  230 230   0
 7  1.46484e+06 230  230 230   0
 8  1.46484e+06 230    0 230   0
11      80213.9  10 1010  10   0
15       157025  50  500  50   0
16 -1.12304e+06 300    0 300   0
19       163636  30  970  30   0
23  1.12304e+06 300    0 300   0
24       909091 240  120 240   0

# Format of ADC events:
# id num dwell delay freqPPM phasePPM freq phase phase_id
# ..  ..    ns    us     ppm  rad/MHz   Hz   rad       ..
[ADC]
1 292 2000 53 0 0 0 0 1

# Format of extension lists:
# id type ref next_id
# next_id of 0 terminates the list
# Extension list is followed by extension specifications
[EXTENSIONS]
1 1 1 0
2 1 2 1
3 1 3 2
4 1 4 0
5 1 5 0
6 3 1 0
7 1 6 0
8 1 7 0
9 4 1 0
10 1 2 0
11 1 8 0
12 1 9 11
13 1 10 0
14 1 11 8
15 1 12 14
16 1 12 7
17 1 13 16
18 1 14 14
19 1 15 0
20 1 12 0
21 1 16 20
22 1 17 21
23 4 2 0
24 1 7 23
25 1 11 24
26 1 6 23
27 1 13 26
28 1 9 0
29 1 17 28
30 1 12 1
31 1 17 30
32 4 3 0
33 1 6 32
34 1 13 33
35 1 7 32
36 1 11 35
37 4 4 0

# Extension specification for digital output and input triggers:
# id type channel delay (us) duration (us)
extension TRIGGERS 3
1 1 1 0 100

